,x,y,z,temp,temp_error
1708472723.1903415,13980.07,43241.25,-1008.5200000000004,9961123.0,-0.23725509643554688
1708472723.3241756,14564.400000000001,45655.0,-1206.2700000000004,10126975.0,-0.24843597412109375
1708472723.4580097,15101.019999999997,48001.28,-1427.75,10312570.0,-0.2594470977783203
1708472723.5918438,15582.0,50252.270000000004,-1676.9199999999983,10523191.0,-0.27059173583984375
1708472723.725678,16007.330000000002,52388.130000000005,-1961.6800000000003,10761791.0,-0.2823505401611328
1708472723.859512,16369.050000000003,54385.03,-2274.119999999999,11026479.0,-0.2934989929199219
1708472723.9933465,16671.15,56223.14,-2606.34,11072646.0,-0.3033103942871094
1708472724.1271806,16909.65,57886.57000000001,-2958.34,11103784.0,-0.3121223449707031
1708472724.2610147,17084.550000000003,59363.41,-3326.16,11127799.0,-0.32013893127441406
1708472724.3948488,17203.800000000003,60653.67,-3701.880000000001,11141477.0,-0.3266105651855469
1708472724.528683,17275.35,61765.270000000004,-4073.6500000000015,11145240.0,-0.3311748504638672
1708472724.662517,17299.199999999997,62710.130000000005,-4437.509999999998,11142675.0,-0.3344287872314453
1708472724.7963512,17287.28,63500.16,-4789.5,11136733.0,-0.3369159698486328
1708472724.9301853,17247.519999999997,64155.21000000001,-5121.720000000001,11126694.0,-0.33849143981933594
1708472725.0640194,17183.92,64691.16,-5434.169999999998,11114046.0,-0.3390636444091797
1708472725.1978536,17100.449999999997,65127.850000000006,-5722.880000000001,11101179.0,-0.3391609191894531
1708472725.331688,17005.050000000003,65481.19,-5991.82,11089142.0,-0.33901023864746094
1708472725.465522,16897.730000000003,65759.09,-6237.029999999999,11077570.0,-0.33869361877441406
1708472725.5993562,16786.42,65977.44,-6458.509999999998,11066216.0,-0.3379669189453125
1708472725.7331903,16671.15,66148.14,-6660.220000000001,11056095.0,-0.3371753692626953
1708472725.8670244,16555.870000000003,66275.18,-6838.189999999999,11047499.0,-0.33637428283691406
1708472726.0008585,16440.6,66370.46,-7000.3499999999985,11039752.0,-0.33560752868652344
1708472726.1346927,16329.300000000003,66437.96,-7142.73,11032495.0,-0.3346729278564453
1708472726.2685268,16218.0,66485.6,-7269.290000000001,11026384.0,-0.33382225036621094
1708472726.402361,16110.669999999998,66517.35,-7383.98,11020876.0,-0.33293724060058594
1708472726.536195,16007.330000000002,66533.24,-7482.860000000001,11016138.0,-0.3321571350097656
1708472726.6700294,15911.919999999998,66537.21,-7569.869999999999,11011521.0,-0.3313007354736328
1708472726.8038635,15820.5,66533.24,-7645.009999999998,11007698.0,-0.3305168151855469
1708472726.9376976,15733.050000000003,66521.32,-7712.25,11004006.0,-0.3297119140625
1708472727.0715318,15653.550000000003,66505.45,-7771.57,11001083.0,-0.32903480529785156
1708472727.205366,15578.019999999997,66489.57,-7822.990000000002,10998062.0,-0.32833099365234375
1708472727.3392,15510.449999999997,66469.72,-7870.450000000001,10995389.0,-0.32762718200683594
1708472727.4730341,15446.849999999999,66445.89,-7910.0,10992743.0,-0.3269462585449219
1708472727.6068683,15387.230000000003,66422.08,-7945.59,10990657.0,-0.3263397216796875
1708472727.7407024,15331.580000000002,66398.25,-7977.23,10988290.0,-0.32573890686035156
1708472727.8745365,15279.900000000001,66374.44,-8004.919999999998,10986361.0,-0.3251476287841797
1708472728.0083706,15232.199999999997,66350.61,-8028.6500000000015,10984257.0,-0.32457542419433594
1708472728.142205,15188.480000000003,66326.8,-8048.419999999998,10982425.0,-0.3240013122558594
1708472728.2760391,15148.730000000003,66306.95,-8064.25,10980636.0,-0.32352256774902344
1708472728.4098732,15112.949999999997,66287.1,-8076.110000000001,10978837.0,-0.3229694366455078
1708472728.5437074,15081.150000000001,66267.25,-8087.98,10977056.0,-0.3224754333496094
1708472728.6775415,15053.330000000002,66247.4,-8099.84,10975550.0,-0.3219757080078125
1708472728.8113756,15025.5,66227.55,-8107.75,10974130.0,-0.32157325744628906
1708472728.9452097,15001.650000000001,66211.67,-8115.66,10972530.0,-0.3210868835449219
1708472729.0790439,14981.769999999997,66195.78,-8123.57,10971100.0,-0.3206768035888672
1708472729.212878,14961.900000000001,66179.91,-8127.52,10969481.0,-0.3201866149902344
1708472729.346712,14946.0,66168.0,-8131.48,10968190.0,-0.31982421875
1708472729.4805465,14930.099999999999,66156.09,-8135.43,10966601.0,-0.3193836212158203
1708472729.6143806,14914.199999999997,66144.17,-8139.389999999999,10965239.0,-0.3189868927001953
1708472729.7482147,14902.269999999997,66132.27,-8143.34,10963588.0,-0.31853675842285156
1708472729.8820488,14890.349999999999,66120.35,-8147.299999999999,10962517.0,-0.3181877136230469
1708472730.015883,14878.419999999998,66108.45,-8151.25,10961027.0,-0.31781768798828125
1708472730.149717,14870.480000000003,66100.5,-8151.25,10959506.0,-0.3173942565917969
1708472730.2835512,14862.519999999997,66092.57,-8151.25,10957899.0,-0.31697845458984375
1708472730.4173853,14854.580000000002,66084.63,-8151.25,10956742.0,-0.3166160583496094
1708472730.5512195,14846.620000000003,66076.68,-8151.25,10955222.0,-0.3162555694580078
1708472730.6850536,14838.669999999998,66068.75,-8151.25,10953767.0,-0.3158550262451172
1708472730.818888,14834.699999999997,66060.81,-8151.25,10952316.0,-0.3154735565185547
1708472730.952722,14830.730000000003,66052.86,-8151.25,10950846.0,-0.3150634765625
1708472731.0865562,14826.75,66044.92,-8151.25,10949427.0,-0.31473541259765625
1708472731.2203903,14822.769999999997,66040.96,-8151.25,10947924.0,-0.31432342529296875
1708472731.3542244,14818.800000000003,66036.99,-8151.25,10946273.0,-0.3139381408691406
1708472731.4880586,14814.830000000002,66033.01,-8151.25,10944754.0,-0.31351470947265625
1708472731.6218927,14810.849999999999,66029.05,-8151.25,10943429.0,-0.31319618225097656
1708472731.7557268,14806.870000000003,66025.08,-8151.25,10941738.0,-0.3127613067626953
1708472731.889561,14806.870000000003,66021.1,-8151.25,10940137.0,-0.3123893737792969
1708472732.023395,14806.870000000003,66017.14,-8151.25,10938414.0,-0.31192970275878906
1708472732.1572292,14806.870000000003,66013.17,-8151.25,10936958.0,-0.31159019470214844
1708472732.2910635,14806.870000000003,66009.2,-8151.25,10935366.0,-0.3111705780029297
1708472732.4248977,14806.870000000003,66005.23,-8151.25,10933626.0,-0.31076812744140625
1708472732.5587318,14806.870000000003,65997.28,-8151.25,10931850.0,-0.3103046417236328
1708472732.692566,14806.870000000003,65993.32,-8151.25,10930407.0,-0.3099555969238281
1708472732.8264,14806.870000000003,65989.35,-8151.25,10928503.0,-0.3095073699951172
1708472732.9602342,14806.870000000003,65985.38,-8151.25,10926680.0,-0.3090705871582031
1708472733.0940683,14806.870000000003,65981.41,-8151.25,10924763.0,-0.30858612060546875
1708472733.2279024,14806.870000000003,65977.44,-8151.25,10923344.0,-0.3082084655761719
1708472733.3617365,14806.870000000003,65973.46,-8151.25,10921319.0,-0.3077564239501953
1708472733.4955707,14806.870000000003,65969.5,-8151.25,10919577.0,-0.3073139190673828
1708472733.629405,14806.870000000003,65965.53,-8151.25,10917388.0,-0.3068065643310547
1708472733.7632391,14806.870000000003,65961.56,-8151.25,10915644.0,-0.3063468933105469
1708472733.8970733,14806.870000000003,65957.59,-8151.25,10913677.0,-0.3059120178222656
1708472734.0309074,14806.870000000003,65953.61,-8151.25,10911749.0,-0.305419921875
1708472734.1647415,14806.870000000003,65949.64,-8151.25,10909584.0,-0.30492591857910156
1708472734.2985756,14806.870000000003,65945.67,-8151.25,10907700.0,-0.30442237854003906
1708472734.4324098,14806.870000000003,65941.71,-8151.25,10905600.0,-0.30396461486816406
1708472734.566244,14806.870000000003,65937.74,-8151.25,10903527.0,-0.3034381866455078
1708472734.700078,14806.870000000003,65933.77,-8151.25,10901369.0,-0.3029460906982422
1708472734.8339121,14806.870000000003,65929.8,-8151.25,10899273.0,-0.3023815155029297
1708472734.9677465,14806.870000000003,65925.82,-8151.25,10897260.0,-0.3019294738769531
1708472735.1015806,14806.870000000003,65921.85,-8151.25,10894987.0,-0.3013629913330078
1708472735.2354147,14806.870000000003,65917.89,-8151.25,10892734.0,-0.30084228515625
1708472735.3692489,14806.870000000003,65913.92,-8151.25,10890510.0,-0.3002643585205078
1708472735.503083,14806.870000000003,65909.95,-8151.25,10888520.0,-0.2997875213623047
1708472735.636917,14806.870000000003,65905.97,-8151.25,10886044.0,-0.2992076873779297
1708472735.7707512,14806.870000000003,65902.0,-8151.25,10883912.0,-0.2986793518066406
1708472735.9045854,14806.870000000003,65898.03,-8151.25,10881392.0,-0.2980499267578125
1708472736.0384195,14806.870000000003,65894.07,-8151.25,10879333.0,-0.2975502014160156
1708472736.1722536,14806.870000000003,65890.1,-8151.25,10876891.0,-0.2969627380371094
1708472736.3060877,14806.870000000003,65886.13,-8151.25,10874659.0,-0.29641151428222656
1708472736.439922,14806.870000000003,65882.16,-8151.25,10871954.0,-0.29576683044433594
1708472736.5737562,14806.870000000003,65878.18,-8151.25,10869952.0,-0.29522705078125
1708472736.7075903,14806.870000000003,65874.21,-8151.25,10867334.0,-0.2946338653564453
1708472736.8414245,14806.870000000003,65870.25,-8151.25,10865102.0,-0.29405975341796875
1708472736.9752586,14806.870000000003,65866.28,-8151.25,10862354.0,-0.2934131622314453
1708472737.1090927,14806.870000000003,65862.31,-8151.25,10860158.0,-0.29282379150390625
1708472737.2429268,14810.849999999999,65858.33,-8151.25,10857589.0,-0.2922401428222656
1708472737.376761,14814.830000000002,65858.33,-8151.25,10855161.0,-0.29161643981933594
1708472737.510595,14814.830000000002,65854.36,-8151.25,10852511.0,-0.2909965515136719
1708472737.6444292,14814.830000000002,65854.36,-8151.25,10850122.0,-0.2903575897216797
1708472737.7782636,14814.830000000002,65850.4,-8151.25,10847459.0,-0.28975486755371094
1708472737.9120977,14814.830000000002,65846.42,-8151.25,10844915.0,-0.28910255432128906
1708472738.0459318,14814.830000000002,65842.46,-8151.25,10842236.0,-0.28845977783203125
1708472738.179766,14814.830000000002,65842.46,-8151.25,10839738.0,-0.2877979278564453
1708472738.3136,14814.830000000002,65838.49,-8151.25,10837226.0,-0.28721046447753906
1708472738.4474342,14814.830000000002,65838.49,-8151.25,10834589.0,-0.28653907775878906
1708472738.5812683,14814.830000000002,65834.52,-8151.25,10831903.0,-0.28589439392089844
1708472738.7151024,14814.830000000002,65830.55,-8151.25,10829227.0,-0.28519439697265625
1708472738.8489366,14814.830000000002,65830.55,-8151.25,10826811.0,-0.28461647033691406
1708472738.9827707,14814.830000000002,65826.57,-8151.25,10824113.0,-0.28392791748046875
1708472739.116605,14814.830000000002,65822.6,-8151.25,10821317.0,-0.28326988220214844
1708472739.2504392,14814.830000000002,65818.64,-8151.25,10818606.0,-0.28255271911621094
1708472739.3842733,14814.830000000002,65818.64,-8151.25,10816162.0,-0.2819557189941406
1708472739.5181074,14814.830000000002,65814.67,-8151.25,10813329.0,-0.2812538146972656
1708472739.6519415,14818.800000000003,65814.67,-8151.25,10810700.0,-0.2806053161621094
1708472739.7857757,14818.800000000003,65814.67,-8151.25,10807734.0,-0.27985572814941406
1708472739.9196098,14818.800000000003,65810.69,-8151.25,10805310.0,-0.2792472839355469
1708472740.053444,14818.800000000003,65806.73,-8151.25,10802458.0,-0.2785453796386719
1708472740.187278,14818.800000000003,65802.76,-8151.25,10799844.0,-0.2778816223144531
1708472740.3211122,14818.800000000003,65802.76,-8151.25,10796899.0,-0.2771472930908203
1708472740.4549463,14818.800000000003,65802.76,-8151.25,10794383.0,-0.2765045166015625
1708472740.5887806,14818.800000000003,65798.78,-8151.25,10791486.0,-0.2758026123046875
1708472740.7226148,14818.800000000003,65794.82,-8151.25,10788748.0,-0.2751121520996094
1708472740.856449,14818.800000000003,65794.82,-8151.25,10785852.0,-0.274383544921875
1708472740.990283,14818.800000000003,65794.82,-8151.25,10783289.0,-0.2737140655517578
1708472741.1241171,14818.800000000003,65790.85,-8151.25,10780515.0,-0.27304649353027344
1708472741.2579513,14818.800000000003,65786.88,-8151.25,10777846.0,-0.2723426818847656
1708472741.3917854,14818.800000000003,65786.88,-8151.25,10774756.0,-0.27159881591796875
1708472741.5256195,14818.800000000003,65782.91,-8151.25,10772145.0,-0.27091217041015625
1708472741.6594536,14818.800000000003,65778.93,-8151.25,10769414.0,-0.2702484130859375
1708472741.7932878,14818.800000000003,65778.93,-8151.25,10766624.0,-0.2695293426513672
1708472741.927122,14818.800000000003,65778.93,-8151.25,10763526.0,-0.2687816619873047
1708472742.0609562,14818.800000000003,65778.93,-8151.25,10760992.0,-0.26808929443359375
1708472742.1947904,14818.800000000003,65774.96,-8151.25,10758288.0,-0.2674407958984375
1708472742.3286245,14818.800000000003,65774.96,-8151.25,10755363.0,-0.2666950225830078
1708472742.4624586,14818.800000000003,65774.96,-8151.25,10752530.0,-0.2659873962402344
1708472742.5962927,14818.800000000003,65774.96,-8151.25,10749805.0,-0.2652606964111328
1708472742.7301269,14818.800000000003,65771.0,-8151.25,10747044.0,-0.2646045684814453
1708472742.863961,14818.800000000003,65767.03,-8151.25,10744221.0,-0.2638740539550781
1708472742.997795,14818.800000000003,65767.03,-8151.25,10741376.0,-0.26317596435546875
1708472743.1316292,14818.800000000003,65763.06,-8151.25,10738424.0,-0.2624053955078125
1708472743.2654636,14818.800000000003,65763.06,-8151.25,10735903.0,-0.2617664337158203
1708472743.3992977,14818.800000000003,65763.06,-8151.25,10732870.0,-0.2610149383544922
1708472743.5331318,14818.800000000003,65759.09,-8151.25,10730170.0,-0.2603282928466797
1708472743.666966,14818.800000000003,65759.09,-8151.25,10727272.0,-0.2595653533935547
1708472743.8008,14818.800000000003,65755.12,-8151.25,10724735.0,-0.25892066955566406
1708472743.9346342,14822.769999999997,65755.12,-8151.25,10721817.0,-0.2581977844238281
1708472744.0684683,14822.769999999997,65751.14,-8151.25,10719051.0,-0.2574920654296875
1708472744.2023025,14822.769999999997,65751.14,-8151.25,10716069.0,-0.25675392150878906
1708472744.3361366,14822.769999999997,65747.17,-8151.25,10713554.0,-0.2560768127441406
1708472744.4699707,14822.769999999997,65747.17,-8151.25,10710622.0,-0.2553558349609375
1708472744.6038048,14822.769999999997,65747.17,-8151.25,10707858.0,-0.25464820861816406
1708472744.7376392,14822.769999999997,65743.21,-8151.25,10704904.0,-0.2538948059082031
1708472744.8714733,14822.769999999997,65743.21,-8151.25,10702321.0,-0.2532024383544922
1708472745.0053074,14822.769999999997,65739.24,-8151.25,10699479.0,-0.25252723693847656
1708472745.1391416,14822.769999999997,65735.27,-8151.25,10696746.0,-0.25181007385253906
1708472745.2729757,14822.769999999997,65735.27,-8151.25,10693797.0,-0.2510700225830078
1708472745.4068098,14822.769999999997,65735.27,-8151.25,10691225.0,-0.25037384033203125
1708472745.540644,14822.769999999997,65731.29,-8151.25,10688429.0,-0.24970436096191406
1708472745.674478,14822.769999999997,65727.32,-8151.25,10685611.0,-0.2489776611328125
1708472745.8083122,14822.769999999997,65727.32,-8151.25,10682751.0,-0.24826622009277344
1708472745.9421463,14822.769999999997,65723.35,-8151.25,10680176.0,-0.24754714965820312
1708472746.0759807,14822.769999999997,65723.35,-8151.25,10677457.0,-0.2469024658203125
1708472746.2098148,14822.769999999997,65723.35,-8151.25,10674661.0,-0.2461719512939453
1708472746.343649,14822.769999999997,65723.35,-8151.25,10671775.0,-0.24545669555664062
1708472746.477483,14822.769999999997,65723.35,-8151.25,10669212.0,-0.24474716186523438
1708472746.6113172,14822.769999999997,65719.39,-8151.25,10666468.0,-0.2440948486328125
1708472746.7451513,14822.769999999997,65719.39,-8151.25,10663764.0,-0.2433757781982422
1708472746.8789854,14822.769999999997,65719.39,-8151.25,10660898.0,-0.24267578125
1708472747.0128195,14822.769999999997,65715.42,-8155.209999999999,10658242.0,-0.24194908142089844
1708472747.1466537,14822.769999999997,65711.45,-8155.209999999999,10655628.0,-0.2413196563720703
1708472747.2804878,14822.769999999997,65711.45,-8155.209999999999,10652812.0,-0.2405872344970703
1708472747.4143221,14822.769999999997,65711.45,-8155.209999999999,10650007.0,-0.23990440368652344
1708472747.5481563,14822.769999999997,65707.48,-8155.209999999999,10647224.0,-0.2391490936279297
1708472747.6819904,14822.769999999997,65703.5,-8155.209999999999,10644776.0,-0.23854446411132812
1708472747.8158245,14822.769999999997,65703.5,-8155.209999999999,10642015.0,-0.237823486328125
1708472747.9496586,14822.769999999997,65703.5,-8155.209999999999,10639329.0,-0.23715591430664062
1708472748.0834928,14822.769999999997,65703.5,-8155.209999999999,10636495.0,-0.23639678955078125
1708472748.2173269,14822.769999999997,65703.5,-8155.209999999999,10634058.0,-0.23579025268554688
1708472748.351161,14822.769999999997,65699.53,-8155.209999999999,10631323.0,-0.23508071899414062
1708472748.4849951,14822.769999999997,65695.57,-8155.209999999999,10628671.0,-0.23441696166992188
1708472748.6188293,14822.769999999997,65695.57,-8155.209999999999,10625868.0,-0.23367691040039062
1708472748.7526634,14822.769999999997,65691.6,-8155.209999999999,10623509.0,-0.23307037353515625
1708472748.8864977,14822.769999999997,65691.6,-8155.209999999999,10620648.0,-0.23235511779785156
1708472749.0203319,14822.769999999997,65691.6,-8155.209999999999,10618068.0,-0.23169898986816406
1708472749.154166,14822.769999999997,65691.6,-8155.209999999999,10615229.0,-0.2309589385986328
1708472749.288,14822.769999999997,65687.63,-8155.209999999999,10612844.0,-0.23034095764160156
1708472749.4218342,14822.769999999997,65687.63,-8155.209999999999,10610161.0,-0.22966575622558594
1708472749.5556684,14822.769999999997,65683.65,-8155.209999999999,10607696.0,-0.22901153564453125
1708472749.6895025,14822.769999999997,65683.65,-8155.209999999999,10604714.0,-0.22828292846679688
1708472749.8233366,14822.769999999997,65679.68,-8155.209999999999,10602428.0,-0.22765350341796875
1708472749.9571707,14822.769999999997,65679.68,-8155.209999999999,10599736.0,-0.22699737548828125
1708472750.0910048,14822.769999999997,65679.68,-8155.209999999999,10597106.0,-0.2263164520263672
1708472750.2248392,14822.769999999997,65675.72,-8155.209999999999,10594260.0,-0.22560882568359375
1708472750.3586733,14822.769999999997,65675.72,-8155.209999999999,10591966.0,-0.22496604919433594
1708472750.4925075,14822.769999999997,65675.72,-8155.209999999999,10589379.0,-0.2243480682373047
1708472750.6263416,14822.769999999997,65675.72,-8155.209999999999,10586808.0,-0.2236614227294922
1708472750.7601757,14822.769999999997,65671.75,-8155.209999999999,10584186.0,-0.22300148010253906
1708472750.8940098,14822.769999999997,65667.78,-8155.209999999999,10581753.0,-0.22233200073242188
1708472751.027844,14822.769999999997,65667.78,-8155.209999999999,10579182.0,-0.2217254638671875
1708472751.161678,14822.769999999997,65667.78,-8155.209999999999,10576588.0,-0.221038818359375
1708472751.2955122,14822.769999999997,65663.81,-8159.169999999998,10573915.0,-0.22038650512695312
1708472751.4293463,14822.769999999997,65659.84,-8159.169999999998,10571336.0,-0.2196807861328125
1708472751.5631807,14822.769999999997,65659.84,-8159.169999999998,10569087.0,-0.21912193298339844
1708472751.6970148,14822.769999999997,65659.84,-8159.169999999998,10566407.0,-0.2184295654296875
1708472751.830849,14822.769999999997,65655.86,-8159.169999999998,10563824.0,-0.2177906036376953
1708472751.964683,14822.769999999997,65651.89,-8159.169999999998,10561219.0,-0.2170886993408203
1708472752.0985172,14822.769999999997,65651.89,-8159.169999999998,10558938.0,-0.2165241241455078
1708472752.2323513,14822.769999999997,65651.89,-8159.169999999998,10556431.0,-0.21586227416992188
1708472752.3661854,14822.769999999997,65651.89,-8159.169999999998,10553909.0,-0.21523284912109375
1708472752.5000196,14822.769999999997,65651.89,-8159.169999999998,10551250.0,-0.2145252227783203
1708472752.6338537,14822.769999999997,65647.92,-8159.169999999998,10549047.0,-0.2139739990234375
1708472752.7676878,14822.769999999997,65647.92,-8163.119999999999,10546500.0,-0.21331024169921875
