,x,y,z,temp,temp_error
1708472351.4805257,13952.25,44475.92,-1336.7900000000009,9565459.0,-0.22555923461914062
1708472351.6143858,14552.480000000003,46969.08,-1550.3600000000006,9672029.0,-0.23748207092285156
1708472351.748246,15093.080000000002,49374.89,-1787.6599999999999,9791277.0,-0.24955368041992188
1708472351.8821058,15570.080000000002,51665.58,-2060.5499999999993,9925773.0,-0.26201438903808594
1708472352.015966,15979.5,53813.36,-2365.09,10075343.0,-0.2745990753173828
1708472352.149826,16313.400000000001,55790.41,-2697.3100000000013,10238270.0,-0.2862434387207031
1708472352.2836862,16575.75,57576.92,-3049.2999999999993,10415246.0,-0.29625701904296875
1708472352.4175463,16766.550000000003,59160.94,-3417.119999999999,10610200.0,-0.3047618865966797
1708472352.5514064,16889.78,60534.57000000001,-3792.84,10826224.0,-0.3119087219238281
1708472352.6852663,16957.35,61709.69,-4172.52,11065648.0,-0.31754493713378906
1708472352.8191264,16973.25,62694.25,-4544.290000000001,11102669.0,-0.321319580078125
1708472352.9529865,16949.4,63508.100000000006,-4900.25,11093284.0,-0.3235950469970703
1708472353.0868466,16889.78,64175.05,-5236.419999999998,11080532.0,-0.3248882293701172
1708472353.2207067,16806.300000000003,64714.97,-5548.860000000001,11066677.0,-0.3255786895751953
1708472353.3545668,16702.949999999997,65147.71000000001,-5837.580000000002,11052140.0,-0.3257713317871094
1708472353.4884267,16587.67,65489.130000000005,-6102.57,11037359.0,-0.3253612518310547
1708472353.6222868,16464.449999999997,65755.12,-6343.82,11023571.0,-0.3246726989746094
1708472353.756147,16337.25,65957.59,-6561.34,11011069.0,-0.3238391876220703
1708472353.890007,16206.080000000002,66112.42,-6755.139999999999,11000412.0,-0.3230171203613281
1708472354.0238671,16074.900000000001,66227.55,-6929.16,10990700.0,-0.32215118408203125
1708472354.157727,15947.699999999997,66306.95,-7083.41,10981796.0,-0.3211078643798828
1708472354.291587,15824.480000000003,66362.53,-7217.869999999999,10974387.0,-0.320159912109375
1708472354.4254472,15709.199999999997,66398.25,-7336.52,10967773.0,-0.31917762756347656
1708472354.5593073,15597.900000000001,66418.1,-7443.310000000001,10962407.0,-0.31833839416503906
1708472354.6931674,15494.550000000003,66426.05,-7534.27,10957201.0,-0.3174476623535156
1708472354.8270276,15395.169999999998,66422.08,-7613.369999999999,10952895.0,-0.31657981872558594
1708472354.9608874,15303.75,66410.17,-7684.57,10948934.0,-0.31577110290527344
1708472355.0947475,15216.300000000003,66394.28,-7747.84,10945563.0,-0.3149738311767578
1708472355.2286077,15136.800000000003,66374.44,-7799.259999999998,10942654.0,-0.31429290771484375
1708472355.3624678,15065.25,66354.59,-7846.720000000001,10939707.0,-0.3135795593261719
1708472355.4963279,14997.669999999998,66330.77,-7886.27,10937249.0,-0.3128948211669922
1708472355.6301877,14934.080000000002,66306.95,-7921.860000000001,10934870.0,-0.3122596740722656
1708472355.7640479,14878.419999999998,66283.13,-7953.5,10932765.0,-0.31162071228027344
1708472355.897908,14826.75,66259.31,-7977.23,10931170.0,-0.3111286163330078
1708472356.031768,14779.050000000003,66235.49,-8000.959999999999,10929110.0,-0.3105449676513672
1708472356.1656282,14735.330000000002,66211.67,-8020.740000000002,10927510.0,-0.310028076171875
1708472356.2994883,14695.580000000002,66191.82,-8036.560000000001,10925843.0,-0.3095245361328125
1708472356.4333482,14659.800000000003,66171.96,-8052.380000000001,10924336.0,-0.3090190887451172
1708472356.5672083,14628.0,66152.12,-8064.25,10923144.0,-0.30863380432128906
1708472356.7010684,14600.169999999998,66132.27,-8076.110000000001,10921612.0,-0.3081703186035156
1708472356.8349285,14576.330000000002,66116.39,-8084.02,10920386.0,-0.3077545166015625
1708472356.9687886,14552.480000000003,66100.5,-8091.93,10919026.0,-0.30733489990234375
1708472357.1026487,14532.599999999999,66084.63,-8095.880000000001,10918012.0,-0.3069572448730469
1708472357.2365086,14512.730000000003,66072.72,-8099.84,10916875.0,-0.30663490295410156
1708472357.3703687,14496.830000000002,66060.81,-8103.790000000001,10915738.0,-0.3062553405761719
1708472357.5042288,14480.919999999998,66048.89,-8107.75,10914783.0,-0.30594635009765625
1708472357.638089,14469.0,66036.99,-8111.700000000001,10913446.0,-0.3055591583251953
1708472357.771949,14457.080000000002,66025.08,-8115.66,10912569.0,-0.3052482604980469
1708472357.905809,14445.150000000001,66013.17,-8119.610000000001,10911584.0,-0.3049793243408203
1708472358.039669,14437.199999999997,66005.23,-8119.610000000001,10910443.0,-0.30463218688964844
1708472358.1735291,14429.25,65997.28,-8123.57,10909577.0,-0.3043708801269531
1708472358.3073893,14421.300000000003,65989.35,-8123.57,10908376.0,-0.3040142059326172
1708472358.4412494,14413.349999999999,65981.41,-8123.57,10907485.0,-0.3037548065185547
1708472358.5751095,14405.400000000001,65973.46,-8123.57,10906490.0,-0.3034954071044922
1708472358.7089694,14401.419999999998,65965.53,-8123.57,10905379.0,-0.3031749725341797
1708472358.8428295,14397.449999999997,65957.59,-8123.57,10904253.0,-0.30289459228515625
1708472358.9766896,14393.480000000003,65949.64,-8123.57,10903255.0,-0.3025779724121094
1708472359.1105497,14389.5,65945.67,-8123.57,10902350.0,-0.302337646484375
1708472359.2444098,14385.519999999997,65937.74,-8123.57,10901234.0,-0.30207252502441406
1708472359.37827,14381.550000000003,65933.77,-8123.57,10900230.0,-0.30177879333496094
1708472359.5121298,14381.550000000003,65929.8,-8123.57,10899136.0,-0.30150794982910156
1708472359.64599,14381.550000000003,65925.82,-8123.57,10897816.0,-0.3011608123779297
1708472359.77985,14381.550000000003,65921.85,-8123.57,10897043.0,-0.3009510040283203
1708472359.91371,14381.550000000003,65917.89,-8123.57,10895866.0,-0.30066680908203125
1708472360.0475702,14377.57,65913.92,-8123.57,10894606.0,-0.3003520965576172
1708472360.18143,14377.57,65909.95,-8123.57,10893316.0,-0.3000526428222656
1708472360.3152902,14377.57,65905.97,-8123.57,10892088.0,-0.2997150421142578
1708472360.4491503,14377.57,65902.0,-8123.57,10891048.0,-0.2994728088378906
1708472360.5830104,14377.57,65898.03,-8123.57,10889763.0,-0.2991676330566406
1708472360.7168705,14377.57,65894.07,-8123.57,10888405.0,-0.2988414764404297
1708472360.8507307,14377.57,65890.1,-8123.57,10886918.0,-0.2984943389892578
1708472360.9845905,14377.57,65886.13,-8123.57,10885697.0,-0.2981529235839844
1708472361.1184506,14377.57,65882.16,-8123.57,10884350.0,-0.29787445068359375
1708472361.2523108,14377.57,65878.18,-8123.57,10882831.0,-0.29750823974609375
1708472361.3861709,14377.57,65874.21,-8123.57,10881490.0,-0.2971763610839844
1708472361.520031,14377.57,65870.25,-8123.57,10879898.0,-0.2968006134033203
1708472361.653891,14377.57,65866.28,-8123.57,10878624.0,-0.29646873474121094
1708472361.787751,14377.57,65862.31,-8123.57,10877078.0,-0.29613685607910156
1708472361.921611,14377.57,65858.33,-8123.57,10875540.0,-0.2957496643066406
1708472362.0554712,14377.57,65854.36,-8123.57,10873972.0,-0.2953948974609375
1708472362.1893313,14377.57,65850.4,-8123.57,10872279.0,-0.29496192932128906
1708472362.3231914,14377.57,65846.42,-8123.57,10870813.0,-0.29460716247558594
1708472362.4570513,14377.57,65842.46,-8123.57,10869124.0,-0.2942352294921875
1708472362.5909114,14377.57,65838.49,-8123.57,10867569.0,-0.2938385009765625
1708472362.7247715,14377.57,65834.52,-8123.57,10865752.0,-0.29343605041503906
1708472362.8586316,14377.57,65830.55,-8123.57,10864022.0,-0.2929859161376953
1708472362.9924917,14377.57,65826.57,-8123.57,10862591.0,-0.2926464080810547
1708472363.1263518,14377.57,65822.6,-8123.57,10860661.0,-0.29219627380371094
1708472363.2602117,14377.57,65818.64,-8123.57,10858955.0,-0.2917804718017578
1708472363.3940718,14377.57,65814.67,-8123.57,10856967.0,-0.2913227081298828
1708472363.527932,14377.57,65810.69,-8123.57,10855233.0,-0.29087257385253906
1708472363.661792,14377.57,65806.73,-8123.57,10853523.0,-0.2904853820800781
1708472363.7956522,14377.57,65802.76,-8123.57,10851527.0,-0.2899971008300781
1708472363.929512,14377.57,65802.76,-8123.57,10849578.0,-0.2895469665527344
1708472364.0633721,14377.57,65798.78,-8123.57,10847558.0,-0.2890434265136719
1708472364.1972322,14377.57,65794.82,-8123.57,10845796.0,-0.28858375549316406
1708472364.3310924,14377.57,65794.82,-8123.57,10843818.0,-0.2881584167480469
1708472364.4649525,14377.57,65790.85,-8123.57,10841899.0,-0.2876605987548828
1708472364.5988126,14377.57,65786.88,-8123.57,10839924.0,-0.2871971130371094
1708472364.7326725,14377.57,65786.88,-8123.57,10837694.0,-0.28664398193359375
1708472364.8665326,14377.57,65782.91,-8123.57,10835914.0,-0.2862052917480469
1708472365.0003927,14377.57,65778.93,-8123.57,10833817.0,-0.2857227325439453
1708472365.1342528,14377.57,65778.93,-8123.57,10831662.0,-0.2851848602294922
1708472365.268113,14377.57,65774.96,-8123.57,10829487.0,-0.28467750549316406
1708472365.401973,14377.57,65771.0,-8123.57,10827273.0,-0.28410911560058594
1708472365.535833,14377.57,65771.0,-8123.57,10825417.0,-0.28365325927734375
1708472365.669693,14377.57,65767.03,-8123.57,10823341.0,-0.2831611633300781
1708472365.803553,14377.57,65763.06,-8123.57,10821199.0,-0.2826099395751953
1708472365.9374132,14377.57,65759.09,-8123.57,10818921.0,-0.28208160400390625
1708472366.0712733,14377.57,65755.12,-8123.57,10816599.0,-0.28151512145996094
1708472366.2051332,14377.57,65751.14,-8123.57,10814584.0,-0.2809715270996094
1708472366.3389933,14377.57,65747.17,-8123.57,10812407.0,-0.28047943115234375
1708472366.4728534,14377.57,65747.17,-8123.57,10810111.0,-0.27989768981933594
1708472366.6067135,14377.57,65747.17,-8123.57,10807723.0,-0.2793464660644531
1708472366.7405736,14377.57,65743.21,-8123.57,10805371.0,-0.27874183654785156
1708472366.8744338,14377.57,65743.21,-8123.57,10803383.0,-0.27822303771972656
1708472367.0082936,14377.57,65739.24,-8123.57,10801047.0,-0.2776832580566406
1708472367.1421537,14377.57,65735.27,-8123.57,10798806.0,-0.2770977020263672
1708472367.2760139,14377.57,65731.29,-8123.57,10796446.0,-0.27654266357421875
1708472367.409874,14377.57,65731.29,-8123.57,10794019.0,-0.2759132385253906
1708472367.543734,14377.57,65727.32,-8123.57,10791972.0,-0.2754039764404297
1708472367.6775942,14377.57,65723.35,-8123.57,10789584.0,-0.2748241424560547
1708472367.811454,14377.57,65719.39,-8123.57,10787198.0,-0.27422332763671875
1708472367.9453142,14377.57,65719.39,-8123.57,10784663.0,-0.2736377716064453
1708472368.0791743,14377.57,65719.39,-8123.57,10782267.0,-0.2729988098144531
1708472368.2130344,14377.57,65715.42,-8123.57,10780190.0,-0.27248573303222656
1708472368.3468945,14377.57,65711.45,-8123.57,10777634.0,-0.2718620300292969
1708472368.4807544,14377.57,65707.48,-8123.57,10775408.0,-0.2712841033935547
1708472368.6146145,14377.57,65707.48,-8123.57,10772852.0,-0.27066612243652344
1708472368.7484746,14377.57,65703.5,-8123.57,10770556.0,-0.27005767822265625
1708472368.8823347,14377.57,65699.53,-8123.57,10768322.0,-0.2695140838623047
1708472369.0161948,14377.57,65699.53,-8123.57,10765765.0,-0.26888275146484375
1708472369.150055,14377.57,65699.53,-8123.57,10763356.0,-0.26828575134277344
1708472369.2839148,14377.57,65695.57,-8123.57,10760798.0,-0.26764488220214844
1708472369.417775,14377.57,65691.6,-8123.57,10758554.0,-0.2670459747314453
1708472369.551635,14377.57,65687.63,-8123.57,10756173.0,-0.26648712158203125
1708472369.6854951,14377.57,65687.63,-8123.57,10753716.0,-0.26584815979003906
1708472369.8193552,14377.57,65687.63,-8127.52,10751369.0,-0.2652626037597656
1708472369.9532151,14377.57,65683.65,-8127.52,10748680.0,-0.2646007537841797
1708472370.0870752,14377.57,65679.68,-8127.52,10746540.0,-0.26401710510253906
1708472370.2209353,14377.57,65679.68,-8127.52,10744047.0,-0.26343345642089844
1708472370.3547955,14377.57,65679.68,-8127.52,10741632.0,-0.26279449462890625
1708472370.4886556,14377.57,65675.72,-8127.52,10739128.0,-0.2621898651123047
1708472370.6225157,14377.57,65675.72,-8127.52,10736515.0,-0.2615222930908203
1708472370.7563756,14377.57,65671.75,-8127.52,10734263.0,-0.26091957092285156
1708472370.8902357,14377.57,65671.75,-8127.52,10731869.0,-0.26035499572753906
1708472371.0240958,14377.57,65667.78,-8127.52,10729343.0,-0.2597007751464844
1708472371.157956,14377.57,65667.78,-8127.52,10726966.0,-0.2591133117675781
1708472371.291816,14377.57,65663.81,-8127.52,10724426.0,-0.25844383239746094
1708472371.425676,14377.57,65663.81,-8131.48,10722169.0,-0.2578716278076172
1708472371.559536,14377.57,65663.81,-8131.48,10719652.0,-0.2572650909423828
1708472371.693396,14377.57,65659.84,-8131.48,10717111.0,-0.2566108703613281
1708472371.8272562,14377.57,65655.86,-8131.48,10714461.0,-0.25597381591796875
1708472371.9611163,14377.57,65655.86,-8131.48,10712167.0,-0.2553367614746094
1708472372.0949764,14377.57,65651.89,-8131.48,10709926.0,-0.2547874450683594
1708472372.2288363,14377.57,65651.89,-8131.48,10707365.0,-0.25414276123046875
1708472372.3626964,14377.57,65651.89,-8131.48,10704993.0,-0.25353240966796875
1708472372.4965565,14377.57,65647.92,-8131.48,10702264.0,-0.2528667449951172
1708472372.6304166,14377.57,65643.96,-8131.48,10699923.0,-0.2522239685058594
1708472372.7642767,14377.57,65643.96,-8131.48,10697723.0,-0.2516899108886719
1708472372.8981369,14377.57,65643.96,-8131.48,10695049.0,-0.25101661682128906
1708472373.0319967,14377.57,65639.99,-8131.48,10692631.0,-0.2504119873046875
1708472373.1658568,14377.57,65636.01,-8131.48,10690061.0,-0.2497425079345703
1708472373.299717,14377.57,65636.01,-8131.48,10687786.0,-0.2491455078125
1708472373.433577,14377.57,65632.05,-8131.48,10685400.0,-0.24857330322265625
1708472373.5674372,14377.57,65632.05,-8131.48,10682921.0,-0.24791526794433594
1708472373.7012973,14377.57,65628.08,-8131.48,10680437.0,-0.2473125457763672
1708472373.8351572,14377.57,65628.08,-8131.48,10677889.0,-0.24663162231445312
1708472373.9690173,14377.57,65628.08,-8131.48,10675733.0,-0.24607276916503906
1708472374.1028774,14377.57,65624.1,-8131.48,10673240.0,-0.2454681396484375
1708472374.2367375,14377.57,65624.1,-8131.48,10670851.0,-0.24483489990234375
1708472374.3705976,14377.57,65620.14,-8131.48,10668377.0,-0.24422645568847656
1708472374.5044575,14377.57,65620.14,-8131.48,10665804.0,-0.2435474395751953
1708472374.6383176,14377.57,65616.17,-8131.48,10663628.0,-0.2429981231689453
1708472374.7721777,14377.57,65616.17,-8131.48,10661018.0,-0.24237060546875
1708472374.9060378,14377.57,65612.2,-8131.48,10658677.0,-0.2417469024658203
1708472375.039898,14377.57,65612.2,-8131.48,10656088.0,-0.24111175537109375
1708472375.173758,14377.57,65612.2,-8135.43,10653771.0,-0.24046897888183594
1708472375.307618,14377.57,65608.23,-8135.43,10651685.0,-0.23993301391601562
1708472375.441478,14377.57,65604.25,-8135.43,10649156.0,-0.23931312561035156
1708472375.5753381,14377.57,65604.25,-8135.43,10646728.0,-0.23868560791015625
1708472375.7091982,14377.57,65604.25,-8135.43,10644113.0,-0.23804855346679688
1708472375.8430583,14377.57,65600.28,-8135.43,10641788.0,-0.23740768432617188
1708472375.9769182,14377.57,65600.28,-8135.43,10639641.0,-0.23687744140625
1708472376.1107783,14377.57,65600.28,-8135.43,10637060.0,-0.236236572265625
1708472376.2446384,14377.57,65600.28,-8135.43,10634728.0,-0.235626220703125
1708472376.3784986,14377.57,65596.32,-8135.43,10632191.0,-0.23500442504882812
1708472376.5123587,14377.57,65596.32,-8135.43,10629849.0,-0.23436546325683594
1708472376.6462188,14377.57,65592.35,-8135.43,10627819.0,-0.23385047912597656
1708472376.7800786,14377.57,65592.35,-8139.389999999999,10625384.0,-0.23322486877441406
1708472376.9139388,14377.57,65592.35,-8139.389999999999,10623064.0,-0.23263168334960938
1708472377.0477989,14377.57,65592.35,-8139.389999999999,10620485.0,-0.23199081420898438
1708472377.181659,14377.57,65588.38,-8139.389999999999,10618276.0,-0.2313823699951172
1708472377.315519,14377.57,65588.38,-8139.389999999999,10615972.0,-0.2308349609375
1708472377.4493792,14377.57,65588.38,-8139.389999999999,10613593.0,-0.23021316528320312
1708472377.583239,14377.57,65584.41,-8139.389999999999,10611315.0,-0.2296314239501953
1708472377.7170992,14377.57,65584.41,-8139.389999999999,10608721.0,-0.2289886474609375
1708472377.8509593,14377.57,65580.44,-8143.34,10606677.0,-0.2284088134765625
1708472377.9848194,14377.57,65580.44,-8143.34,10604417.0,-0.22786521911621094
1708472378.1186795,14377.57,65576.46,-8143.34,10601933.0,-0.22723388671875
1708472378.2525394,14377.57,65576.46,-8143.34,10599766.0,-0.2266693115234375
1708472378.3863995,14377.57,65576.46,-8143.34,10597144.0,-0.22601890563964844
1708472378.5202596,14377.57,65572.5,-8143.34,10595150.0,-0.2254505157470703
1708472378.6541197,14377.57,65568.53,-8143.34,10592836.0,-0.22490882873535156
1708472378.7879798,14377.57,65564.56,-8143.34,10590461.0,-0.22428131103515625
1708472378.92184,14377.57,65564.56,-8143.34,10588144.0,-0.22371292114257812
1708472379.0556998,14377.57,65564.56,-8143.34,10585852.0,-0.22310256958007812
1708472379.18956,14377.57,65564.56,-8143.34,10583767.0,-0.2225322723388672
1708472379.32342,14377.57,65560.59,-8143.34,10581544.0,-0.2220001220703125
1708472379.4572802,14377.57,65560.59,-8143.34,10579294.0,-0.22139739990234375
1708472379.5911403,14377.57,65556.61,-8143.34,10576946.0,-0.22082901000976562
1708472379.7250004,14377.57,65552.64,-8143.34,10574480.0,-0.2201862335205078
1708472379.8588603,14377.57,65552.64,-8143.34,10572622.0,-0.21967697143554688
1708472379.9927204,14377.57,65552.64,-8143.34,10570360.0,-0.21912574768066406
1708472380.1265805,14377.57,65552.64,-8147.299999999999,10568152.0,-0.21853256225585938
1708472380.2604406,14377.57,65548.67,-8147.299999999999,10565835.0,-0.2179718017578125
1708472380.3943007,14377.57,65548.67,-8147.299999999999,10563480.0,-0.21733856201171875
1708472380.5281606,14377.57,65548.67,-8147.299999999999,10561444.0,-0.21682167053222656
1708472380.6620207,14377.57,65544.71,-8147.299999999999,10559138.0,-0.21625709533691406
1708472380.7958808,14377.57,65544.71,-8147.299999999999,10556979.0,-0.21567916870117188
1708472380.929741,14377.57,65544.71,-8147.299999999999,10554724.0,-0.21512603759765625
1708472381.063601,14377.57,65544.71,-8147.299999999999,10552358.0,-0.21448898315429688
1708472381.1974611,14377.57,65540.74,-8147.299999999999,10550451.0,-0.21400070190429688
1708472381.331321,14377.57,65540.74,-8147.299999999999,10548182.0,-0.21343421936035156
1708472381.465181,14377.57,65540.74,-8147.299999999999,10545906.0,-0.21285629272460938
1708472381.5990412,14377.57,65540.74,-8147.299999999999,10543526.0,-0.21227264404296875
1708472381.7329013,14377.57,65540.74,-8147.299999999999,10541556.0,-0.2116985321044922
1708472381.8667614,14377.57,65536.77,-8147.299999999999,10539608.0,-0.2112140655517578
1708472382.0006216,14377.57,65536.77,-8147.299999999999,10537263.0,-0.21063232421875
1708472382.1344814,14377.57,65532.8,-8147.299999999999,10535189.0,-0.21009254455566406
1708472382.2683415,14377.57,65532.8,-8147.299999999999,10532877.0,-0.2095050811767578
1708472382.4022017,14377.57,65532.8,-8147.299999999999,10530995.0,-0.2089710235595703
1708472382.5360618,14377.57,65532.8,-8147.299999999999,10528888.0,-0.20847511291503906
1708472382.6699219,14377.57,65528.83,-8147.299999999999,10526593.0,-0.20787811279296875
1708472382.8037817,14377.57,65528.83,-8147.299999999999,10524383.0,-0.20734214782714844
1708472382.9376419,14377.57,65524.850000000006,-8147.299999999999,10522139.0,-0.20675277709960938
1708472383.071502,14377.57,65524.850000000006,-8147.299999999999,10520268.0,-0.20624160766601562
1708472383.205362,14377.57,65524.850000000006,-8147.299999999999,10518143.0,-0.20572662353515625
1708472383.3392222,14377.57,65524.850000000006,-8151.25,10516048.0,-0.20516204833984375
1708472383.4730823,14377.57,65520.89,-8151.25,10513935.0,-0.20464134216308594
1708472383.6069422,14377.57,65520.89,-8151.25,10511691.0,-0.2040424346923828
1708472383.7408023,14377.57,65520.89,-8151.25,10509919.0,-0.20355224609375
1708472383.8746624,14377.57,65520.89,-8151.25,10507820.0,-0.20305824279785156
1708472384.0085225,14377.57,65516.92,-8151.25,10505673.0,-0.20248985290527344
