,x,y,z,temp,temp_error
1708472182.570726,13697.849999999999,43574.72,-1004.5699999999997,10767380.0,0.0
1708472182.704826,14270.25,46048.03,-1206.2700000000004,10827726.0,-0.2400989532470703
1708472182.8389266,14790.980000000003,48449.89,-1439.619999999999,10889796.0,-0.25330352783203125
1708472182.9730268,15256.050000000003,50752.490000000005,-1704.5999999999985,10950195.0,-0.2667961120605469
1708472183.1071272,15657.519999999997,52932.020000000004,-2001.2299999999996,11005350.0,-0.2797431945800781
1708472183.2412274,15991.419999999998,54960.69,-2321.59,11053814.0,-0.29170989990234375
1708472183.3753276,16257.75,56818.64,-2665.6699999999983,11094823.0,-0.30264854431152344
1708472183.509428,16456.5,58490.020000000004,-3029.529999999999,11127902.0,-0.3125572204589844
1708472183.6435282,16587.67,59966.850000000006,-3401.2999999999993,11152175.0,-0.3212394714355469
1708472183.7776287,16663.199999999997,61245.2,-3773.0699999999997,11165534.0,-0.32826805114746094
1708472183.9117289,16687.050000000003,62336.94,-4136.93,11169374.0,-0.33341407775878906
1708472184.045829,16667.17,63257.990000000005,-4484.970000000001,11166352.0,-0.33708953857421875
1708472184.1799295,16611.519999999997,64024.2,-4817.189999999999,11159194.0,-0.33971214294433594
1708472184.3140297,16528.050000000003,64655.42,-5129.630000000001,11149891.0,-0.34162330627441406
1708472184.4481301,16424.699999999997,65167.56,-5422.299999999999,11138676.0,-0.3428153991699219
1708472184.5822303,16305.449999999997,65580.44,-5691.25,11126397.0,-0.3433513641357422
1708472184.7163305,16174.269999999997,65909.95,-5936.450000000001,11114693.0,-0.34346771240234375
1708472184.850431,16035.150000000001,66168.0,-6161.889999999999,11103623.0,-0.3433380126953125
1708472184.9845312,15896.019999999997,66366.5,-6363.59,11093902.0,-0.34307289123535156
1708472185.1186316,15756.900000000001,66517.35,-6545.52,11085478.0,-0.34275245666503906
1708472185.2527318,15617.769999999997,66632.49,-6711.630000000001,11077704.0,-0.3423576354980469
1708472185.3868322,15482.620000000003,66715.85,-6857.970000000001,11070549.0,-0.3417854309082031
1708472185.5209324,15351.449999999997,66771.44,-6988.48,11064438.0,-0.3412017822265625
1708472185.6550326,15224.25,66807.17,-7103.18,11058841.0,-0.3405952453613281
1708472185.789133,15105.0,66827.01,-7206.009999999998,11054143.0,-0.33998680114746094
1708472185.9232333,14993.699999999997,66830.99,-7296.98,11050166.0,-0.33946990966796875
1708472186.0573337,14886.370000000003,66827.01,-7376.07,11046173.0,-0.3388671875
1708472186.191434,14787.0,66815.1,-7447.259999999998,11042761.0,-0.3382530212402344
1708472186.325534,14695.580000000002,66799.23,-7510.540000000001,11039655.0,-0.3376922607421875
1708472186.4596345,14608.120000000003,66779.38,-7565.919999999998,11036678.0,-0.33710289001464844
1708472186.5937347,14528.620000000003,66755.56,-7613.369999999999,11034130.0,-0.33654022216796875
1708472186.7278352,14457.080000000002,66727.77,-7652.919999999998,11031775.0,-0.33605003356933594
1708472186.8619354,14389.5,66699.97,-7688.52,11029273.0,-0.33547210693359375
1708472186.9960356,14325.900000000001,66672.18,-7720.16,11027097.0,-0.3349418640136719
1708472187.130136,14270.25,66644.4,-7747.84,11025045.0,-0.334442138671875
1708472187.2642362,14218.57,66616.6,-7771.57,11022732.0,-0.33388519287109375
1708472187.3983366,14170.870000000003,66588.82,-7791.3499999999985,11020875.0,-0.3333930969238281
1708472187.5324368,14127.150000000001,66565.0,-7807.169999999998,11019055.0,-0.3329277038574219
1708472187.666537,14087.400000000001,66541.17,-7822.990000000002,11016803.0,-0.33237457275390625
1708472187.8006375,14051.620000000003,66517.35,-7838.810000000001,11015049.0,-0.3318977355957031
1708472187.9347377,14019.82,66493.53,-7850.669999999998,11013106.0,-0.33139991760253906
1708472188.0688381,13992.0,66473.68,-7862.540000000001,11011155.0,-0.33087921142578125
1708472188.2029383,13964.169999999998,66453.84,-7870.450000000001,11009630.0,-0.3304424285888672
1708472188.3370385,13940.32,66433.99,-7878.360000000001,11007792.0,-0.32999420166015625
1708472188.471139,13920.449999999997,66418.1,-7882.32,11005926.0,-0.32949256896972656
1708472188.6052392,13900.57,66402.23,-7886.27,11004196.0,-0.3290424346923828
1708472188.7393396,13884.669999999998,66386.35,-7890.23,11002251.0,-0.32854461669921875
1708472188.8734398,13868.769999999997,66370.46,-7894.18,11000609.0,-0.32807159423828125
1708472189.00754,13856.849999999999,66358.56,-7898.130000000001,10998944.0,-0.3276634216308594
1708472189.1416404,13844.919999999998,66346.64,-7902.09,10997074.0,-0.3271923065185547
1708472189.2757406,13833.0,66334.74,-7906.040000000001,10995340.0,-0.3267173767089844
1708472189.409841,13825.050000000003,66322.82,-7910.0,10993471.0,-0.326263427734375
1708472189.5439413,13817.099999999999,66310.92,-7910.0,10991587.0,-0.3257598876953125
1708472189.6780417,13809.150000000001,66302.97,-7910.0,10989938.0,-0.3253288269042969
1708472189.812142,13801.199999999997,66295.03,-7910.0,10988208.0,-0.3249053955078125
1708472189.946242,13793.25,66287.1,-7910.0,10986259.0,-0.32440185546875
1708472190.0803425,13789.269999999997,66279.16,-7910.0,10984432.0,-0.3239479064941406
1708472190.2144427,13785.300000000003,66271.21,-7910.0,10982504.0,-0.32346534729003906
1708472190.3485432,13781.32,66263.28,-7910.0,10980641.0,-0.3229694366455078
1708472190.4826434,13777.349999999999,66255.33,-7910.0,10979064.0,-0.3225669860839844
1708472190.6167436,13773.370000000003,66247.4,-7910.0,10977129.0,-0.32210350036621094
1708472190.750844,13769.400000000001,66243.42,-7910.0,10975264.0,-0.3216114044189453
1708472190.8849442,13765.419999999998,66235.49,-7910.0,10973260.0,-0.3211402893066406
1708472191.0190446,13765.419999999998,66231.52,-7910.0,10971308.0,-0.32064056396484375
1708472191.1531448,13765.419999999998,66227.55,-7910.0,10969541.0,-0.3201618194580078
1708472191.287245,13761.449999999997,66223.57,-7913.950000000001,10967788.0,-0.3197479248046875
1708472191.4213455,13761.449999999997,66215.64,-7913.950000000001,10965687.0,-0.3192291259765625
1708472191.5554457,13761.449999999997,66211.67,-7913.950000000001,10963827.0,-0.31875038146972656
1708472191.689546,13761.449999999997,66207.69,-7913.950000000001,10961712.0,-0.3182525634765625
1708472191.8236463,13761.449999999997,66203.73,-7913.950000000001,10959782.0,-0.31772804260253906
1708472191.9577465,13761.449999999997,66199.76,-7913.950000000001,10957821.0,-0.3172454833984375
1708472192.091847,13761.449999999997,66195.78,-7913.950000000001,10955896.0,-0.31679725646972656
1708472192.2259471,13761.449999999997,66191.82,-7913.950000000001,10953795.0,-0.31625938415527344
1708472192.3600476,13761.449999999997,66187.85,-7917.91,10951841.0,-0.3157844543457031
1708472192.4941478,13761.449999999997,66183.88,-7917.91,10949573.0,-0.3152294158935547
1708472192.628248,13761.449999999997,66179.91,-7917.91,10947693.0,-0.3147239685058594
1708472192.7623484,13761.449999999997,66175.93,-7917.91,10945755.0,-0.3142681121826172
1708472192.8964486,13761.449999999997,66171.96,-7917.91,10943490.0,-0.31372833251953125
1708472193.030549,13761.449999999997,66168.0,-7917.91,10941519.0,-0.31320762634277344
1708472193.1646492,13761.449999999997,66164.03,-7921.860000000001,10939424.0,-0.3127021789550781
1708472193.2987494,13761.449999999997,66160.06,-7921.860000000001,10937063.0,-0.3121185302734375
1708472193.43285,13761.449999999997,66156.09,-7921.860000000001,10935087.0,-0.3116035461425781
1708472193.56695,13761.449999999997,66152.12,-7921.860000000001,10933053.0,-0.31112098693847656
1708472193.7010505,13761.449999999997,66148.14,-7921.860000000001,10930792.0,-0.3105583190917969
1708472193.8351507,13761.449999999997,66144.17,-7921.860000000001,10928713.0,-0.31002235412597656
1708472193.9692512,13761.449999999997,66140.21,-7921.860000000001,10926354.0,-0.3094749450683594
1708472194.1033514,13761.449999999997,66136.24,-7921.860000000001,10924073.0,-0.3088855743408203
1708472194.2374516,13761.449999999997,66132.27,-7921.860000000001,10922116.0,-0.30838966369628906
1708472194.371552,13761.449999999997,66128.29,-7921.860000000001,10919797.0,-0.3078460693359375
1708472194.5056522,13761.449999999997,66124.32,-7921.860000000001,10917586.0,-0.3072776794433594
1708472194.6397526,13761.449999999997,66120.35,-7921.860000000001,10915296.0,-0.30672264099121094
1708472194.7738528,13761.449999999997,66116.39,-7921.860000000001,10912842.0,-0.3061256408691406
1708472194.907953,13757.480000000003,66112.42,-7921.860000000001,10910784.0,-0.30556297302246094
1708472195.0420535,13757.480000000003,66108.45,-7921.860000000001,10908566.0,-0.30504417419433594
1708472195.1761537,13757.480000000003,66104.48,-7921.860000000001,10906149.0,-0.3044414520263672
1708472195.310254,13757.480000000003,66100.5,-7921.860000000001,10903967.0,-0.3038902282714844
1708472195.4443543,13757.480000000003,66096.53,-7921.860000000001,10901498.0,-0.3032989501953125
1708472195.5784545,13757.480000000003,66092.57,-7921.860000000001,10899187.0,-0.3026866912841797
1708472195.712555,13757.480000000003,66088.6,-7921.860000000001,10897100.0,-0.3021430969238281
1708472195.8466551,13757.480000000003,66084.63,-7921.860000000001,10894636.0,-0.30158424377441406
1708472195.9807556,13757.480000000003,66080.65,-7921.860000000001,10892332.0,-0.3009834289550781
1708472196.1148558,13757.480000000003,66076.68,-7921.860000000001,10890119.0,-0.3004264831542969
1708472196.248956,13757.480000000003,66072.72,-7921.860000000001,10887468.0,-0.2997779846191406
1708472196.3830564,13757.480000000003,66068.75,-7921.860000000001,10885252.0,-0.2991981506347656
1708472196.5171566,13757.480000000003,66064.78,-7925.82,10883037.0,-0.2986621856689453
1708472196.651257,13757.480000000003,66060.81,-7925.82,10880567.0,-0.29805564880371094
1708472196.7853572,13757.480000000003,66056.84,-7925.82,10878344.0,-0.2974662780761719
1708472196.9194574,13757.480000000003,66052.86,-7925.82,10875868.0,-0.29686546325683594
1708472197.0535579,13757.480000000003,66048.89,-7925.82,10873393.0,-0.2962188720703125
1708472197.187658,13757.480000000003,66044.92,-7925.82,10871208.0,-0.2956733703613281
1708472197.3217585,13757.480000000003,66044.92,-7925.82,10868788.0,-0.2950878143310547
1708472197.4558587,13757.480000000003,66040.96,-7925.82,10866305.0,-0.29445838928222656
1708472197.589959,13757.480000000003,66036.99,-7925.82,10863957.0,-0.2938671112060547
1708472197.7240593,13757.480000000003,66033.01,-7925.82,10861309.0,-0.29321861267089844
1708472197.8581595,13757.480000000003,66033.01,-7925.82,10859014.0,-0.2926063537597656
1708472197.99226,13757.480000000003,66029.05,-7929.77,10856763.0,-0.29205894470214844
1708472198.1263602,13757.480000000003,66025.08,-7929.77,10854249.0,-0.2914295196533203
1708472198.2604606,13757.480000000003,66021.1,-7929.77,10851859.0,-0.2908172607421875
1708472198.3945608,13757.480000000003,66021.1,-7929.77,10849276.0,-0.290191650390625
1708472198.528661,13757.480000000003,66017.14,-7929.77,10846696.0,-0.2895355224609375
1708472198.6627614,13757.480000000003,66017.14,-7929.77,10844463.0,-0.2889575958251953
1708472198.7968616,13757.480000000003,66013.17,-7929.77,10841949.0,-0.28835296630859375
1708472198.930962,13757.480000000003,66013.17,-7929.77,10839622.0,-0.28772926330566406
1708472199.0650623,13757.480000000003,66009.2,-7929.77,10837086.0,-0.28711700439453125
1708472199.1991625,13757.480000000003,66009.2,-7929.77,10834446.0,-0.2864494323730469
1708472199.333263,13757.480000000003,66005.23,-7929.77,10832174.0,-0.2858390808105469
1708472199.467363,13757.480000000003,66005.23,-7929.77,10829924.0,-0.2852821350097656
1708472199.6014636,13757.480000000003,66001.25,-7933.73,10827223.0,-0.2846221923828125
1708472199.7355638,13757.480000000003,65997.28,-7933.73,10824915.0,-0.28402137756347656
1708472199.869664,13757.480000000003,65997.28,-7933.73,10822230.0,-0.2833728790283203
1708472200.0037644,13757.480000000003,65993.32,-7933.73,10819708.0,-0.28270721435546875
1708472200.1378646,13757.480000000003,65993.32,-7933.73,10817534.0,-0.2821388244628906
1708472200.271965,13757.480000000003,65989.35,-7933.73,10815001.0,-0.28153228759765625
1708472200.4060652,13757.480000000003,65985.38,-7933.73,10812582.0,-0.2808952331542969
1708472200.5401654,13757.480000000003,65981.41,-7933.73,10810115.0,-0.2802848815917969
1708472200.6742659,13757.480000000003,65981.41,-7933.73,10807427.0,-0.2796058654785156
1708472200.808366,13753.5,65977.44,-7933.73,10805196.0,-0.27899932861328125
1708472200.9424665,13753.5,65973.46,-7933.73,10802848.0,-0.2784309387207031
1708472201.0765667,13753.5,65969.5,-7933.73,10800138.0,-0.27776145935058594
1708472201.210667,13753.5,65969.5,-7933.73,10797802.0,-0.27715110778808594
1708472201.3447673,13753.5,65965.53,-7933.73,10795332.0,-0.2765350341796875
1708472201.4788675,13753.5,65961.56,-7933.73,10792806.0,-0.2758598327636719
1708472201.612968,13753.5,65961.56,-7933.73,10790681.0,-0.2753105163574219
1708472201.7470682,13753.5,65957.59,-7933.73,10788206.0,-0.2747020721435547
1708472201.8811684,13753.5,65957.59,-7933.73,10785660.0,-0.2740478515625
1708472202.0152688,13753.5,65953.61,-7933.73,10783252.0,-0.27344703674316406
1708472202.149369,13753.5,65949.64,-7933.73,10780536.0,-0.27277183532714844
1708472202.2834694,13753.5,65945.67,-7933.73,10778155.0,-0.2721385955810547
1708472202.4175696,13753.5,65941.71,-7933.73,10775952.0,-0.2715911865234375
1708472202.55167,13753.5,65937.74,-7933.73,10773453.0,-0.2709484100341797
1708472202.6857703,13753.5,65933.77,-7933.73,10770971.0,-0.27032470703125
1708472202.8198705,13753.5,65929.8,-7933.73,10768462.0,-0.2696990966796875
1708472202.953971,13753.5,65925.82,-7933.73,10765981.0,-0.26903343200683594
1708472203.088071,13753.5,65921.85,-7933.73,10763694.0,-0.2684497833251953
1708472203.2221715,13753.5,65917.89,-7933.73,10761314.0,-0.2678680419921875
1708472203.3562717,13753.5,65917.89,-7933.73,10758810.0,-0.2672157287597656
1708472203.490372,13753.5,65913.92,-7933.73,10756465.0,-0.26662254333496094
1708472203.6244724,13753.5,65909.95,-7933.73,10753826.0,-0.26595306396484375
1708472203.7585726,13753.5,65909.95,-7933.73,10751580.0,-0.2653465270996094
1708472203.892673,13753.5,65905.97,-7933.73,10749290.0,-0.2647857666015625
1708472204.0267732,13753.5,65902.0,-7933.73,10746751.0,-0.2641468048095703
1708472204.1608734,13753.5,65898.03,-7933.73,10744387.0,-0.2635307312011719
1708472204.2949739,13753.5,65898.03,-7933.73,10742009.0,-0.26293182373046875
1708472204.429074,13753.5,65894.07,-7933.73,10739448.0,-0.26225852966308594
1708472204.5631745,13753.5,65890.1,-7933.73,10737263.0,-0.26169586181640625
1708472204.6972747,13753.5,65886.13,-7933.73,10734923.0,-0.2611198425292969
1708472204.831375,13753.5,65886.13,-7933.73,10732520.0,-0.2604827880859375
1708472204.9654753,13753.5,65882.16,-7933.73,10730127.0,-0.25989341735839844
1708472205.0995755,13753.5,65878.18,-7933.73,10727618.0,-0.2592449188232422
1708472205.233676,13753.5,65874.21,-7933.73,10725496.0,-0.2586555480957031
1708472205.3677762,13753.5,65874.21,-7937.68,10723118.0,-0.2581005096435547
1708472205.5018764,13753.5,65870.25,-7937.68,10720770.0,-0.2574748992919922
1708472205.6359768,13753.5,65870.25,-7937.68,10718438.0,-0.2568817138671875
1708472205.770077,13753.5,65866.28,-7937.68,10715843.0,-0.2562541961669922
1708472205.9041774,13753.5,65866.28,-7937.68,10713608.0,-0.2556285858154297
1708472206.0382776,13753.5,65862.31,-7937.68,10711482.0,-0.2550945281982422
1708472206.1723778,13753.5,65862.31,-7937.68,10709020.0,-0.2544879913330078
1708472206.3064783,13753.5,65858.33,-7937.68,10706815.0,-0.2538948059082031
1708472206.4405785,13753.5,65858.33,-7937.68,10704372.0,-0.2532978057861328
1708472206.574679,13753.5,65858.33,-7941.639999999999,10701957.0,-0.2526569366455078
1708472206.708779,13753.5,65854.36,-7941.639999999999,10699931.0,-0.25211524963378906
1708472206.8428793,13753.5,65854.36,-7941.639999999999,10697593.0,-0.2515544891357422
1708472206.9769797,13753.5,65854.36,-7941.639999999999,10695135.0,-0.25092124938964844
1708472207.11108,13753.5,65850.4,-7941.639999999999,10692979.0,-0.2503623962402344
1708472207.2451804,13753.5,65846.42,-7941.639999999999,10690391.0,-0.24971771240234375
1708472207.3792806,13753.5,65842.46,-7941.639999999999,10688413.0,-0.24915313720703125
1708472207.513381,13753.5,65842.46,-7941.639999999999,10686311.0,-0.24863433837890625
1708472207.6474812,13753.5,65842.46,-7941.639999999999,10683877.0,-0.24802780151367188
1708472207.7815814,13753.5,65838.49,-7941.639999999999,10681628.0,-0.2474365234375
1708472207.9156818,13753.5,65838.49,-7941.639999999999,10679236.0,-0.246856689453125
1708472208.049782,13753.5,65838.49,-7941.639999999999,10676948.0,-0.2462329864501953
1708472208.1838825,13753.5,65834.52,-7941.639999999999,10674890.0,-0.24570465087890625
1708472208.3179827,13753.5,65834.52,-7941.639999999999,10672555.0,-0.24513626098632812
1708472208.4520829,13753.5,65834.52,-7941.639999999999,10670218.0,-0.24452972412109375
1708472208.5861833,13753.5,65834.52,-7941.639999999999,10668030.0,-0.2439746856689453
1708472208.7202835,13753.5,65830.55,-7941.639999999999,10665677.0,-0.2433643341064453
1708472208.854384,13753.5,65830.55,-7941.639999999999,10663538.0,-0.2427845001220703
1708472208.9884841,13753.5,65830.55,-7941.639999999999,10661570.0,-0.2422943115234375
1708472209.1225843,13753.5,65826.57,-7941.639999999999,10659156.0,-0.2416820526123047
1708472209.2566848,13753.5,65826.57,-7941.639999999999,10657050.0,-0.2411327362060547
1708472209.390785,13753.5,65826.57,-7941.639999999999,10654786.0,-0.24056434631347656
1708472209.5248854,13753.5,65822.6,-7941.639999999999,10652505.0,-0.2399463653564453
1708472209.6589856,13753.5,65822.6,-7941.639999999999,10650585.0,-0.2394561767578125
1708472209.7930858,13753.5,65818.64,-7941.639999999999,10648343.0,-0.23890304565429688
1708472209.9271863,13749.519999999997,65818.64,-7941.639999999999,10646078.0,-0.23830795288085938
1708472210.0612864,13749.519999999997,65814.67,-7941.639999999999,10643862.0,-0.23776626586914062
1708472210.195387,13749.519999999997,65814.67,-7941.639999999999,10641532.0,-0.2371540069580078
1708472210.329487,13749.519999999997,65810.69,-7941.639999999999,10639669.0,-0.23663711547851562
1708472210.4635873,13749.519999999997,65806.73,-7941.639999999999,10637493.0,-0.2361278533935547
1708472210.5976877,13749.519999999997,65806.73,-7941.639999999999,10635175.0,-0.23552894592285156
1708472210.731788,13749.519999999997,65802.76,-7941.639999999999,10633182.0,-0.2350025177001953
1708472210.8658884,13749.519999999997,65798.78,-7941.639999999999,10630784.0,-0.23441314697265625
1708472210.9999886,13749.519999999997,65798.78,-7941.639999999999,10628737.0,-0.2338390350341797
1708472211.1340888,13749.519999999997,65794.82,-7941.639999999999,10626849.0,-0.2333660125732422
1708472211.2681892,13749.519999999997,65790.85,-7941.639999999999,10624539.0,-0.23279953002929688
1708472211.4022894,13745.550000000003,65786.88,-7941.639999999999,10622500.0,-0.23224830627441406
1708472211.5363898,13745.550000000003,65786.88,-7941.639999999999,10620358.0,-0.23172378540039062
1708472211.67049,13741.57,65782.91,-7941.639999999999,10618044.0,-0.23111534118652344
1708472211.8045905,13741.57,65778.93,-7941.639999999999,10616216.0,-0.230621337890625
1708472211.9386907,13741.57,65774.96,-7941.639999999999,10614083.0,-0.23010635375976562
1708472212.0727909,13741.57,65774.96,-7941.639999999999,10611936.0,-0.2295398712158203
1708472212.2068913,13741.57,65771.0,-7941.639999999999,10609869.0,-0.2290191650390625
1708472212.3409915,13741.57,65771.0,-7941.639999999999,10607608.0,-0.22845840454101562
1708472212.475092,13741.57,65771.0,-7941.639999999999,10605442.0,-0.2278881072998047
1708472212.6091921,13741.57,65767.03,-7941.639999999999,10603585.0,-0.22737693786621094
1708472212.7432923,13741.57,65763.06,-7941.639999999999,10601721.0,-0.22691726684570312
1708472212.8773928,13741.57,65763.06,-7941.639999999999,10599530.0,-0.22635650634765625
1708472213.011493,13741.57,65759.09,-7941.639999999999,10597645.0,-0.22585296630859375
