,x,y,z,temp,temp_error
1708474196.5292957,14162.919999999998,43304.770000000004,-937.3400000000001,10618107.0,-0.23857498168945312
1708474196.6630595,14755.199999999997,45714.56,-1123.2200000000012,10835252.0,-0.249481201171875
1708474196.7968233,15299.769999999997,48052.89,-1344.7000000000007,10891107.0,-0.26131248474121094
1708474196.9305868,15788.699999999997,50295.92999999999,-1593.8600000000006,10942422.0,-0.2725257873535156
1708474197.0643506,16218.0,52419.89,-1866.7599999999984,10991168.0,-0.2833099365234375
1708474197.1981144,16583.699999999997,54400.92,-2175.25,11038458.0,-0.2945556640625
1708474197.3318782,16885.800000000003,56219.17,-2507.470000000001,11076459.0,-0.3046112060546875
1708474197.465642,17124.300000000003,57858.78,-2855.5099999999984,11105303.0,-0.3130207061767578
1708474197.5994055,17299.199999999997,59315.770000000004,-3219.369999999999,11127420.0,-0.32062530517578125
1708474197.7331693,17418.449999999997,60586.17,-3591.1399999999994,11140195.0,-0.3269538879394531
1708474197.866933,17486.019999999997,61673.96000000001,-3958.9500000000007,11142671.0,-0.3312492370605469
1708474198.000697,17509.870000000003,62595.0,-4318.860000000001,11139567.0,-0.3343467712402344
1708474198.1344607,17497.949999999997,63369.14,-4666.9000000000015,11132987.0,-0.3368034362792969
1708474198.2682242,17454.230000000003,64008.32000000001,-4995.16,11121719.0,-0.3379535675048828
1708474198.401988,17386.65,64532.36,-5303.66,11108951.0,-0.3383979797363281
1708474198.5357518,17303.18,64957.14,-5588.41,11096892.0,-0.3386402130126953
1708474198.6695156,17203.800000000003,65294.600000000006,-5849.439999999999,11084046.0,-0.3383636474609375
1708474198.8032794,17096.480000000003,65564.56,-6090.700000000001,11071796.0,-0.3377418518066406
1708474198.937043,16985.18,65774.96,-6308.220000000001,11060986.0,-0.33704376220703125
1708474199.0708067,16869.9,65937.74,-6505.970000000001,11051315.0,-0.33635520935058594
1708474199.2045705,16754.620000000003,66060.81,-6683.950000000001,11042077.0,-0.3353996276855469
1708474199.3383343,16639.35,66152.12,-6842.1500000000015,11034125.0,-0.33447837829589844
1708474199.472098,16524.08,66215.64,-6980.57,11027497.0,-0.33366966247558594
1708474199.6058617,16412.769999999997,66259.31,-7107.130000000001,11021021.0,-0.33271217346191406
1708474199.7396255,16309.419999999998,66287.1,-7217.869999999999,11015350.0,-0.33181190490722656
1708474199.8733892,16210.050000000003,66299.0,-7316.75,11010514.0,-0.33092498779296875
1708474200.007153,16114.650000000001,66302.97,-7403.759999999998,11006033.0,-0.3301048278808594
1708474200.1409168,16023.230000000003,66299.0,-7478.91,11002103.0,-0.32927513122558594
1708474200.2746804,15939.75,66287.1,-7546.139999999999,10998378.0,-0.32843971252441406
1708474200.4084442,15860.25,66271.21,-7601.509999999998,10995290.0,-0.3277454376220703
1708474200.542208,15784.730000000003,66251.36,-7652.919999999998,10992076.0,-0.3269481658935547
1708474200.6759717,15717.150000000001,66227.55,-7696.43,10989221.0,-0.32624053955078125
1708474200.8097355,15653.550000000003,66203.73,-7735.98,10986823.0,-0.3255615234375
1708474200.943499,15593.919999999998,66179.91,-7767.619999999999,10984183.0,-0.32488441467285156
1708474201.0772629,15542.25,66156.09,-7795.299999999999,10981901.0,-0.3242530822753906
1708474201.2110267,15494.550000000003,66132.27,-7819.029999999999,10979660.0,-0.3235931396484375
1708474201.3447905,15450.830000000002,66108.45,-7838.810000000001,10977688.0,-0.32305335998535156
1708474201.4785542,15411.080000000002,66084.63,-7858.59,10975731.0,-0.3224506378173828
1708474201.6123178,15375.300000000003,66060.81,-7874.41,10973600.0,-0.3218708038330078
1708474201.7460816,15339.519999999997,66040.96,-7890.23,10971934.0,-0.32135009765625
1708474201.8798454,15307.730000000003,66021.1,-7902.09,10970005.0,-0.3207988739013672
1708474202.0136092,15279.900000000001,66001.25,-7913.950000000001,10968204.0,-0.3202972412109375
1708474202.147373,15256.050000000003,65985.38,-7921.860000000001,10966708.0,-0.31978607177734375
1708474202.2811365,15232.199999999997,65969.5,-7929.77,10965029.0,-0.3193359375
1708474202.4149003,15212.330000000002,65953.61,-7937.68,10963464.0,-0.3188648223876953
1708474202.548664,15192.449999999997,65937.74,-7941.639999999999,10961603.0,-0.31835365295410156
1708474202.682428,15176.550000000003,65921.85,-7945.59,10960290.0,-0.3179512023925781
1708474202.8161917,15160.650000000001,65909.95,-7949.549999999999,10958595.0,-0.3174724578857422
1708474202.9499552,15148.730000000003,65898.03,-7953.5,10956925.0,-0.3170356750488281
1708474203.083719,15136.800000000003,65886.13,-7957.459999999999,10955533.0,-0.3165874481201172
1708474203.2174828,15124.870000000003,65874.21,-7961.419999999998,10953948.0,-0.31618309020996094
1708474203.3512466,15116.919999999998,65862.31,-7961.419999999998,10952538.0,-0.3157768249511719
1708474203.4850104,15108.980000000003,65854.36,-7961.419999999998,10950733.0,-0.3152904510498047
1708474203.618774,15101.019999999997,65846.42,-7961.419999999998,10949501.0,-0.3149528503417969
1708474203.7525377,15093.080000000002,65838.49,-7961.419999999998,10947895.0,-0.3145103454589844
1708474203.8863015,15085.120000000003,65830.55,-7961.419999999998,10946150.0,-0.3140716552734375
1708474204.0200653,15081.150000000001,65822.6,-7961.419999999998,10944911.0,-0.3137035369873047
1708474204.153829,15077.169999999998,65814.67,-7961.419999999998,10943241.0,-0.31328392028808594
1708474204.2875926,15073.199999999997,65806.73,-7961.419999999998,10941573.0,-0.31287193298339844
1708474204.4213564,15069.230000000003,65798.78,-7961.419999999998,10940056.0,-0.3124256134033203
1708474204.5551202,15065.25,65794.82,-7961.419999999998,10938600.0,-0.3120861053466797
1708474204.688884,15061.269999999997,65786.88,-7961.419999999998,10937005.0,-0.3116607666015625
1708474204.8226478,15057.300000000003,65782.91,-7961.419999999998,10935349.0,-0.31122779846191406
1708474204.9564114,15053.330000000002,65778.93,-7961.419999999998,10934007.0,-0.3108806610107422
1708474205.0901752,15049.349999999999,65771.0,-7961.419999999998,10932233.0,-0.31043434143066406
1708474205.223939,15049.349999999999,65767.03,-7961.419999999998,10930518.0,-0.3100299835205078
1708474205.3577027,15049.349999999999,65763.06,-7961.419999999998,10928688.0,-0.30954742431640625
1708474205.4914665,15049.349999999999,65759.09,-7961.419999999998,10927137.0,-0.3091907501220703
1708474205.62523,15049.349999999999,65755.12,-7961.419999999998,10925486.0,-0.30875587463378906
1708474205.7589939,15049.349999999999,65751.14,-7961.419999999998,10923464.0,-0.3082752227783203
1708474205.8927577,15049.349999999999,65747.17,-7961.419999999998,10921913.0,-0.30788612365722656
1708474206.0265214,15049.349999999999,65743.21,-7961.419999999998,10920084.0,-0.3074302673339844
1708474206.1602852,15049.349999999999,65739.24,-7961.419999999998,10918272.0,-0.3069953918457031
1708474206.2940488,15049.349999999999,65735.27,-7961.419999999998,10916250.0,-0.3064842224121094
1708474206.4278126,15049.349999999999,65731.29,-7961.419999999998,10914536.0,-0.3060874938964844
1708474206.5615764,15049.349999999999,65727.32,-7961.419999999998,10912742.0,-0.3056297302246094
1708474206.6953402,15049.349999999999,65723.35,-7961.419999999998,10910569.0,-0.3051013946533203
1708474206.829104,15049.349999999999,65719.39,-7961.419999999998,10908928.0,-0.3047027587890625
1708474206.9628675,15049.349999999999,65715.42,-7961.419999999998,10906783.0,-0.3041839599609375
1708474207.0966313,15049.349999999999,65711.45,-7961.419999999998,10904666.0,-0.3036937713623047
1708474207.230395,15049.349999999999,65707.48,-7961.419999999998,10902944.0,-0.3032035827636719
1708474207.3641589,15049.349999999999,65703.5,-7961.419999999998,10900693.0,-0.3027210235595703
1708474207.4979227,15049.349999999999,65699.53,-7961.419999999998,10898683.0,-0.3022289276123047
1708474207.6316862,15049.349999999999,65695.57,-7961.419999999998,10896571.0,-0.30167579650878906
1708474207.76545,15049.349999999999,65691.6,-7961.419999999998,10894652.0,-0.301239013671875
1708474207.8992138,15049.349999999999,65687.63,-7961.419999999998,10892377.0,-0.30068016052246094
1708474208.0329776,15049.349999999999,65683.65,-7961.419999999998,10890049.0,-0.300140380859375
1708474208.1667414,15049.349999999999,65679.68,-7961.419999999998,10888048.0,-0.2996044158935547
1708474208.300505,15049.349999999999,65679.68,-7961.419999999998,10885733.0,-0.29907798767089844
1708474208.4342687,15049.349999999999,65675.72,-7961.419999999998,10883438.0,-0.2985343933105469
1708474208.5680325,15049.349999999999,65671.75,-7961.419999999998,10881181.0,-0.2979412078857422
1708474208.7017963,15049.349999999999,65667.78,-7961.419999999998,10878956.0,-0.29744529724121094
1708474208.83556,15049.349999999999,65663.81,-7961.419999999998,10876679.0,-0.29686737060546875
1708474208.9693236,15049.349999999999,65659.84,-7961.419999999998,10874148.0,-0.29625892639160156
1708474209.1030874,15049.349999999999,65655.86,-7965.369999999999,10872055.0,-0.2957286834716797
1708474209.2368512,15049.349999999999,65655.86,-7965.369999999999,10869578.0,-0.2951335906982422
1708474209.370615,15049.349999999999,65651.89,-7965.369999999999,10866998.0,-0.2945384979248047
1708474209.5043788,15049.349999999999,65647.92,-7965.369999999999,10864685.0,-0.29392433166503906
1708474209.6381423,15049.349999999999,65643.96,-7965.369999999999,10862212.0,-0.29335975646972656
1708474209.7719061,15049.349999999999,65639.99,-7965.369999999999,10859753.0,-0.292755126953125
1708474209.90567,15049.349999999999,65639.99,-7965.369999999999,10857052.0,-0.2920875549316406
1708474210.0394337,15049.349999999999,65636.01,-7965.369999999999,10854913.0,-0.2915496826171875
1708474210.1731975,15049.349999999999,65636.01,-7965.369999999999,10852158.0,-0.29088592529296875
1708474210.306961,15049.349999999999,65632.05,-7969.32,10849502.0,-0.29025840759277344
1708474210.4407248,15049.349999999999,65628.08,-7969.32,10847297.0,-0.2896537780761719
1708474210.5744886,15049.349999999999,65628.08,-7969.32,10844535.0,-0.2890167236328125
1708474210.7082524,15049.349999999999,65624.1,-7969.32,10841961.0,-0.2883872985839844
1708474210.842016,15049.349999999999,65620.14,-7969.32,10839257.0,-0.2876873016357422
1708474210.9757798,15049.349999999999,65620.14,-7969.32,10836749.0,-0.2871074676513672
1708474211.1095436,15049.349999999999,65616.17,-7973.279999999999,10834163.0,-0.2864398956298828
1708474211.2433074,15049.349999999999,65612.2,-7973.279999999999,10831265.0,-0.28574180603027344
1708474211.3770711,15049.349999999999,65608.23,-7973.279999999999,10828891.0,-0.28513526916503906
1708474211.5108347,15049.349999999999,65604.25,-7973.279999999999,10826091.0,-0.2844581604003906
1708474211.6445985,15049.349999999999,65600.28,-7973.279999999999,10823414.0,-0.2838001251220703
1708474211.7783623,15049.349999999999,65596.32,-7973.279999999999,10820665.0,-0.2830772399902344
1708474211.912126,15049.349999999999,65596.32,-7973.279999999999,10818029.0,-0.282470703125
1708474212.0458899,15049.349999999999,65596.32,-7973.279999999999,10815198.0,-0.28175926208496094
1708474212.1796534,15049.349999999999,65592.35,-7973.279999999999,10812195.0,-0.2810211181640625
1708474212.3134172,15049.349999999999,65588.38,-7973.279999999999,10809779.0,-0.2804088592529297
1708474212.447181,15049.349999999999,65588.38,-7973.279999999999,10806848.0,-0.2796821594238281
1708474212.5809448,15049.349999999999,65588.38,-7973.279999999999,10803913.0,-0.27898216247558594
1708474212.7147086,15049.349999999999,65584.41,-7973.279999999999,10801296.0,-0.27826690673828125
1708474212.848472,15049.349999999999,65580.44,-7973.279999999999,10798517.0,-0.277618408203125
1708474212.982236,15049.349999999999,65580.44,-7973.279999999999,10795737.0,-0.27690887451171875
1708474213.1159997,15049.349999999999,65576.46,-7973.279999999999,10792830.0,-0.2761650085449219
1708474213.2497635,15049.349999999999,65576.46,-7977.23,10790167.0,-0.27552032470703125
1708474213.3835273,15049.349999999999,65576.46,-7977.23,10787221.0,-0.27477455139160156
1708474213.5172908,15049.349999999999,65572.5,-7977.23,10784319.0,-0.2740669250488281
1708474213.6510546,15049.349999999999,65568.53,-7977.23,10781691.0,-0.27335357666015625
1708474213.7848184,15049.349999999999,65564.56,-7977.23,10778688.0,-0.2726573944091797
1708474213.9185822,15049.349999999999,65560.59,-7977.23,10775738.0,-0.2719287872314453
1708474214.052346,15049.349999999999,65560.59,-7977.23,10772738.0,-0.27114295959472656
1708474214.1861095,15049.349999999999,65556.61,-7981.189999999999,10770159.0,-0.2705097198486328
1708474214.3198733,15049.349999999999,65552.64,-7981.189999999999,10767296.0,-0.2697715759277344
1708474214.4536371,15049.349999999999,65552.64,-7981.189999999999,10764173.0,-0.26900672912597656
1708474214.587401,15049.349999999999,65548.67,-7981.189999999999,10761527.0,-0.2683086395263672
1708474214.7211647,15049.349999999999,65548.67,-7981.189999999999,10758537.0,-0.26758575439453125
1708474214.8549283,15049.349999999999,65548.67,-7981.189999999999,10755613.0,-0.2668609619140625
1708474214.988692,15049.349999999999,65544.71,-7981.189999999999,10752696.0,-0.2660865783691406
1708474215.1224558,15049.349999999999,65540.74,-7981.189999999999,10749863.0,-0.26541709899902344
1708474215.2562196,15049.349999999999,65540.74,-7981.189999999999,10746925.0,-0.26465797424316406
1708474215.3899834,15049.349999999999,65536.77,-7981.189999999999,10743871.0,-0.26387596130371094
1708474215.523747,15049.349999999999,65532.8,-7981.189999999999,10741315.0,-0.263214111328125
1708474215.6575108,15049.349999999999,65532.8,-7981.189999999999,10738265.0,-0.26245689392089844
1708474215.7912745,15049.349999999999,65528.83,-7981.189999999999,10735255.0,-0.2617149353027344
1708474215.9250383,15049.349999999999,65528.83,-7981.189999999999,10732496.0,-0.26097679138183594
1708474216.0588021,15049.349999999999,65528.83,-7981.189999999999,10729469.0,-0.2602519989013672
1708474216.1925657,15049.349999999999,65524.850000000006,-7985.139999999999,10726600.0,-0.259521484375
1708474216.3263295,15049.349999999999,65524.850000000006,-7985.139999999999,10723560.0,-0.25872802734375
1708474216.4600933,15049.349999999999,65520.89,-7985.139999999999,10720838.0,-0.2580604553222656
1708474216.593857,15049.349999999999,65516.92,-7985.139999999999,10717853.0,-0.25728797912597656
1708474216.7276208,15049.349999999999,65516.92,-7985.139999999999,10714728.0,-0.2565326690673828
1708474216.8613844,15049.349999999999,65512.94,-7985.139999999999,10712161.0,-0.2558250427246094
1708474216.9951482,15049.349999999999,65508.97,-7985.139999999999,10709131.0,-0.2550830841064453
1708474217.128912,15049.349999999999,65508.97,-7985.139999999999,10706319.0,-0.25436973571777344
1708474217.2626758,15049.349999999999,65508.97,-7985.139999999999,10703290.0,-0.2535686492919922
1708474217.3964396,15049.349999999999,65508.97,-7985.139999999999,10700488.0,-0.252899169921875
1708474217.530203,15049.349999999999,65505.0,-7985.139999999999,10697580.0,-0.2521400451660156
1708474217.663967,15049.349999999999,65501.03,-7985.139999999999,10694483.0,-0.25138092041015625
1708474217.7977307,15049.349999999999,65501.03,-7985.139999999999,10691774.0,-0.2506752014160156
1708474217.9314945,15049.349999999999,65497.07000000001,-7989.0999999999985,10688857.0,-0.2499217987060547
1708474218.0652583,15049.349999999999,65497.07000000001,-7989.0999999999985,10685701.0,-0.2491588592529297
1708474218.1990218,15049.349999999999,65493.100000000006,-7989.0999999999985,10682978.0,-0.24840545654296875
1708474218.3327856,15049.349999999999,65493.100000000006,-7989.0999999999985,10680122.0,-0.24772071838378906
1708474218.4665494,15049.349999999999,65489.130000000005,-7989.0999999999985,10677226.0,-0.24697113037109375
1708474218.6003132,15049.349999999999,65489.130000000005,-7989.0999999999985,10674105.0,-0.24616622924804688
1708474218.734077,15049.349999999999,65485.16,-7989.0999999999985,10671586.0,-0.2455291748046875
1708474218.8678405,15049.349999999999,65485.16,-7989.0999999999985,10668484.0,-0.24474143981933594
1708474219.0016043,15049.349999999999,65481.19,-7989.0999999999985,10665505.0,-0.2440032958984375
1708474219.135368,15049.349999999999,65481.19,-7989.0999999999985,10662934.0,-0.2432880401611328
1708474219.269132,15049.349999999999,65477.21000000001,-7989.0999999999985,10659951.0,-0.24257659912109375
1708474219.4028957,15049.349999999999,65473.25,-7989.0999999999985,10657066.0,-0.2418346405029297
1708474219.5366592,15049.349999999999,65473.25,-7993.049999999999,10654173.0,-0.2410602569580078
1708474219.670423,15049.349999999999,65473.25,-7993.049999999999,10651423.0,-0.24039649963378906
1708474219.8041868,15049.349999999999,65469.28,-7993.049999999999,10648593.0,-0.23964881896972656
1708474219.9379506,15049.349999999999,65469.28,-7993.049999999999,10645503.0,-0.23888397216796875
1708474220.0717144,15049.349999999999,65465.31,-7993.049999999999,10642911.0,-0.23819923400878906
1708474220.205478,15049.349999999999,65465.31,-7993.049999999999,10639918.0,-0.23746109008789062
1708474220.3392417,15049.349999999999,65461.33,-7993.049999999999,10637158.0,-0.2367534637451172
1708474220.4730055,15049.349999999999,65461.33,-7993.049999999999,10634281.0,-0.2359790802001953
1708474220.6067693,15049.349999999999,65461.33,-7993.049999999999,10631603.0,-0.23532485961914062
1708474220.740533,15049.349999999999,65457.36,-7997.009999999998,10628828.0,-0.23459434509277344
1708474220.8742967,15049.349999999999,65457.36,-7997.009999999998,10625700.0,-0.23381423950195312
1708474221.0080605,15049.349999999999,65453.39,-7997.009999999998,10623207.0,-0.23316192626953125
1708474221.1418242,15049.349999999999,65453.39,-7997.009999999998,10620389.0,-0.23242950439453125
1708474221.275588,15049.349999999999,65453.39,-7997.009999999998,10617525.0,-0.2317218780517578
1708474221.4093518,15049.349999999999,65449.42,-7997.009999999998,10614807.0,-0.23097991943359375
1708474221.5431154,15049.349999999999,65449.42,-7997.009999999998,10611941.0,-0.23029327392578125
1708474221.6768792,15049.349999999999,65445.46000000001,-7997.009999999998,10609196.0,-0.229583740234375
1708474221.810643,15049.349999999999,65445.46000000001,-7997.009999999998,10606160.0,-0.22879791259765625
1708474221.9444067,15049.349999999999,65441.490000000005,-7997.009999999998,10603656.0,-0.22817039489746094
1708474222.0781705,15049.349999999999,65441.490000000005,-7997.009999999998,10600784.0,-0.22742652893066406
1708474222.211934,15049.349999999999,65441.490000000005,-8000.959999999999,10597992.0,-0.22672462463378906
1708474222.3456979,15049.349999999999,65441.490000000005,-8000.959999999999,10595456.0,-0.22602081298828125
1708474222.4794617,15049.349999999999,65437.520000000004,-8000.959999999999,10592616.0,-0.22533416748046875
1708474222.6132255,15049.349999999999,65437.520000000004,-8000.959999999999,10590037.0,-0.22465896606445312
1708474222.7469893,15049.349999999999,65433.55,-8000.959999999999,10587135.0,-0.2238922119140625
1708474222.8807528,15049.349999999999,65429.57000000001,-8000.959999999999,10584622.0,-0.22327613830566406
1708474223.0145166,15049.349999999999,65429.57000000001,-8000.959999999999,10581861.0,-0.2225494384765625
1708474223.1482804,15049.349999999999,65429.57000000001,-8000.959999999999,10578755.0,-0.22179794311523438
1708474223.2820442,15049.349999999999,65429.57000000001,-8000.959999999999,10576367.0,-0.22115707397460938
1708474223.415808,15049.349999999999,65425.600000000006,-8000.959999999999,10573474.0,-0.22043418884277344
1708474223.5495715,15049.349999999999,65425.600000000006,-8000.959999999999,10570783.0,-0.219757080078125
1708474223.6833353,15049.349999999999,65421.64,-8000.959999999999,10568108.0,-0.2190227508544922
1708474223.817099,15049.349999999999,65421.64,-8000.959999999999,10565549.0,-0.2183971405029297
1708474223.950863,15049.349999999999,65417.67,-8004.919999999998,10562933.0,-0.2176952362060547
1708474224.0846267,15049.349999999999,65413.69,-8004.919999999998,10560030.0,-0.21697044372558594
