,x,y,z,temp,temp_error
1708474883.4182642,14190.75,44531.490000000005,-1720.4199999999983,9373531.0,-0.21550941467285156
1708474883.5522475,14834.699999999997,47036.57000000001,-1937.9500000000007,9431957.0,-0.2270679473876953
1708474883.686231,15423.0,49454.28999999999,-2187.1100000000006,9495480.0,-0.23984909057617188
1708474883.8202143,15943.730000000003,51756.89,-2460.0099999999984,9558896.0,-0.25284385681152344
1708474883.9541976,16392.9,53908.64,-2760.59,9618645.0,-0.2646350860595703
1708474884.0881808,16762.58,55885.69,-3088.8499999999985,9679545.0,-0.27599334716796875
1708474884.2221642,17056.730000000003,57664.25,-3436.8899999999994,9739520.0,-0.2866859436035156
1708474884.3561475,17275.35,59232.41,-3800.75,9795077.0,-0.2950401306152344
1708474884.490131,17422.42,60590.14,-4168.57,9852117.0,-0.30159950256347656
1708474884.6241143,17505.9,61741.44,-4532.43,9914651.0,-0.30696868896484375
1708474884.7580976,17537.699999999997,62698.21000000001,-4888.380000000001,9983285.0,-0.3102874755859375
1708474884.892081,17525.78,63488.25,-5228.509999999998,10064269.0,-0.3120594024658203
1708474885.0260644,17478.08,64127.41,-5548.860000000001,10164490.0,-0.3132762908935547
1708474885.1600475,17402.550000000003,64639.55,-5845.490000000002,10284010.0,-0.31351280212402344
1708474885.294031,17307.15,65044.490000000005,-6118.380000000001,10427430.0,-0.3130645751953125
1708474885.4280143,17199.82,65362.08,-6363.59,10598325.0,-0.31241607666015625
1708474885.5619977,17084.550000000003,65608.23,-6585.07,10797617.0,-0.3115978240966797
1708474885.695981,16965.300000000003,65794.82,-6782.82,10953320.0,-0.31044578552246094
1708474885.8299644,16842.08,65933.77,-6960.799999999999,10941455.0,-0.30927467346191406
1708474885.9639478,16722.83,66036.99,-7119.0,10931472.0,-0.3082313537597656
1708474886.0979311,16603.58,66108.45,-7257.419999999998,10922147.0,-0.3070030212402344
1708474886.2319143,16488.300000000003,66156.09,-7380.029999999999,10914142.0,-0.3058433532714844
1708474886.3658977,16380.980000000003,66183.88,-7486.82,10907481.0,-0.30478477478027344
1708474886.499881,16277.620000000003,66199.76,-7581.73,10901181.0,-0.30368614196777344
1708474886.6338644,16182.230000000003,66203.73,-7664.790000000001,10895940.0,-0.3026714324951172
1708474886.7678478,16090.800000000003,66199.76,-7735.98,10891257.0,-0.30165863037109375
1708474886.9018312,16007.330000000002,66187.85,-7799.259999999998,10887116.0,-0.3007678985595703
1708474887.0358145,15927.830000000002,66171.96,-7850.669999999998,10883326.0,-0.29984474182128906
1708474887.169798,15856.269999999997,66152.12,-7894.18,10879904.0,-0.29895973205566406
1708474887.303781,15792.669999999998,66132.27,-7933.73,10876947.0,-0.29821014404296875
1708474887.4377644,15733.050000000003,66108.45,-7969.32,10874340.0,-0.2974281311035156
1708474887.5717478,15677.400000000001,66084.63,-7997.009999999998,10871693.0,-0.29669761657714844
1708474887.7057312,15625.730000000003,66060.81,-8020.740000000002,10869655.0,-0.29604148864746094
1708474887.8397145,15582.0,66040.96,-8044.470000000001,10867361.0,-0.2953624725341797
1708474887.973698,15542.25,66021.1,-8064.25,10865363.0,-0.2947540283203125
1708474888.1076813,15506.480000000003,66001.25,-8080.07,10863646.0,-0.2941455841064453
1708474888.2416646,15470.699999999997,65981.41,-8091.93,10861953.0,-0.2936229705810547
1708474888.3756478,15438.900000000001,65961.56,-8103.790000000001,10860355.0,-0.2930927276611328
1708474888.5096312,15411.080000000002,65941.71,-8115.66,10858666.0,-0.29253578186035156
1708474888.6436145,15387.230000000003,65925.82,-8123.57,10857451.0,-0.2921333312988281
1708474888.777598,15367.349999999999,65909.95,-8131.48,10856061.0,-0.2916412353515625
1708474888.9115813,15347.480000000003,65894.07,-8135.43,10854611.0,-0.29118919372558594
1708474889.0455647,15331.580000000002,65882.16,-8139.389999999999,10853626.0,-0.2908153533935547
1708474889.179548,15315.669999999998,65870.25,-8143.34,10852335.0,-0.29039764404296875
1708474889.3135314,15299.769999999997,65858.33,-8147.299999999999,10851149.0,-0.29003143310546875
1708474889.4475145,15287.849999999999,65846.42,-8151.25,10850141.0,-0.2896404266357422
1708474889.581498,15275.919999999998,65834.52,-8155.209999999999,10848946.0,-0.2893104553222656
1708474889.7154813,15267.980000000003,65826.57,-8159.169999999998,10848029.0,-0.2889881134033203
1708474889.8494647,15260.019999999997,65818.64,-8159.169999999998,10846797.0,-0.2885913848876953
1708474889.983448,15252.080000000002,65810.69,-8159.169999999998,10845856.0,-0.2883319854736328
1708474890.1174314,15244.120000000003,65802.76,-8159.169999999998,10844827.0,-0.287994384765625
1708474890.2514148,15236.169999999998,65794.82,-8159.169999999998,10843662.0,-0.2876605987548828
1708474890.3853981,15232.199999999997,65786.88,-8163.119999999999,10842846.0,-0.2873973846435547
1708474890.5193815,15228.230000000003,65778.93,-8163.119999999999,10841707.0,-0.2870769500732422
1708474890.6533647,15224.25,65771.0,-8163.119999999999,10840643.0,-0.2867927551269531
1708474890.787348,15220.269999999997,65767.03,-8163.119999999999,10839703.0,-0.28647613525390625
1708474890.9213314,15216.300000000003,65759.09,-8163.119999999999,10838661.0,-0.28623199462890625
1708474891.0553148,15212.330000000002,65755.12,-8163.119999999999,10837630.0,-0.28594207763671875
1708474891.1892982,15208.349999999999,65747.17,-8163.119999999999,10836304.0,-0.28559112548828125
1708474891.3232815,15208.349999999999,65743.21,-8163.119999999999,10835599.0,-0.2853832244873047
1708474891.457265,15208.349999999999,65739.24,-8163.119999999999,10834302.0,-0.28505706787109375
1708474891.5912483,15208.349999999999,65735.27,-8163.119999999999,10832903.0,-0.2847270965576172
1708474891.7252314,15208.349999999999,65731.29,-8163.119999999999,10832094.0,-0.2844829559326172
1708474891.8592148,15208.349999999999,65727.32,-8163.119999999999,10830938.0,-0.28418540954589844
1708474891.9931982,15208.349999999999,65723.35,-8163.119999999999,10829532.0,-0.28387451171875
1708474892.1271815,15208.349999999999,65719.39,-8163.119999999999,10828323.0,-0.2835369110107422
1708474892.261165,15208.349999999999,65715.42,-8163.119999999999,10827120.0,-0.28327178955078125
1708474892.3951483,15208.349999999999,65711.45,-8163.119999999999,10825901.0,-0.2829627990722656
1708474892.5291317,15208.349999999999,65707.48,-8163.119999999999,10824394.0,-0.2825756072998047
1708474892.663115,15208.349999999999,65703.5,-8163.119999999999,10823288.0,-0.2823314666748047
1708474892.7970982,15208.349999999999,65699.53,-8163.119999999999,10821866.0,-0.28197669982910156
1708474892.9310815,15208.349999999999,65695.57,-8163.119999999999,10820297.0,-0.2816009521484375
1708474893.065065,15208.349999999999,65691.6,-8163.119999999999,10819210.0,-0.2813243865966797
1708474893.1990483,15208.349999999999,65687.63,-8163.119999999999,10817506.0,-0.28093528747558594
1708474893.3330317,15208.349999999999,65683.65,-8163.119999999999,10815957.0,-0.28058433532714844
1708474893.467015,15208.349999999999,65679.68,-8163.119999999999,10814625.0,-0.2802238464355469
1708474893.6009984,15208.349999999999,65675.72,-8163.119999999999,10813021.0,-0.27986717224121094
1708474893.7349818,15208.349999999999,65671.75,-8163.119999999999,10811376.0,-0.2794971466064453
1708474893.868965,15208.349999999999,65667.78,-8163.119999999999,10809750.0,-0.27906036376953125
1708474894.0029483,15208.349999999999,65663.81,-8163.119999999999,10808291.0,-0.27874755859375
1708474894.1369317,15208.349999999999,65659.84,-8163.119999999999,10806691.0,-0.2783470153808594
1708474894.270915,15208.349999999999,65655.86,-8163.119999999999,10804737.0,-0.2778778076171875
1708474894.4048984,15208.349999999999,65651.89,-8163.119999999999,10803300.0,-0.27755165100097656
1708474894.5388818,15208.349999999999,65651.89,-8163.119999999999,10801466.0,-0.2770977020263672
1708474894.6728652,15208.349999999999,65647.92,-8163.119999999999,10799450.0,-0.2766456604003906
1708474894.8068485,15208.349999999999,65643.96,-8163.119999999999,10797928.0,-0.2762565612792969
1708474894.9408317,15208.349999999999,65639.99,-8163.119999999999,10795964.0,-0.2758007049560547
1708474895.074815,15208.349999999999,65636.01,-8167.07,10793962.0,-0.2753562927246094
1708474895.2087984,15208.349999999999,65636.01,-8167.07,10792133.0,-0.2748737335205078
1708474895.3427818,15208.349999999999,65632.05,-8167.07,10790264.0,-0.2744560241699219
1708474895.4767652,15208.349999999999,65628.08,-8167.07,10788346.0,-0.2739906311035156
1708474895.6107485,15208.349999999999,65624.1,-8167.07,10786214.0,-0.2734546661376953
1708474895.744732,15208.349999999999,65624.1,-8167.07,10784478.0,-0.27306365966796875
1708474895.8787153,15208.349999999999,65624.1,-8167.07,10782400.0,-0.27254486083984375
1708474896.0126984,15208.349999999999,65624.1,-8167.07,10780184.0,-0.2720355987548828
1708474896.1466818,15208.349999999999,65624.1,-8167.07,10778369.0,-0.2715740203857422
1708474896.2806652,15208.349999999999,65620.14,-8167.07,10776151.0,-0.27104759216308594
1708474896.4146485,15208.349999999999,65616.17,-8167.07,10773874.0,-0.27053260803222656
1708474896.548632,15208.349999999999,65616.17,-8167.07,10771896.0,-0.26999855041503906
1708474896.6826153,15208.349999999999,65612.2,-8167.07,10769664.0,-0.2695026397705078
1708474896.8165987,15208.349999999999,65608.23,-8167.07,10767608.0,-0.2689800262451172
1708474896.950582,15208.349999999999,65604.25,-8167.07,10765140.0,-0.2683868408203125
1708474897.0845654,15208.349999999999,65604.25,-8171.029999999999,10763198.0,-0.26792335510253906
1708474897.2185485,15208.349999999999,65600.28,-8171.029999999999,10760936.0,-0.26735687255859375
1708474897.352532,15208.349999999999,65596.32,-8171.029999999999,10758414.0,-0.26676368713378906
1708474897.4865153,15208.349999999999,65596.32,-8171.029999999999,10756356.0,-0.26624107360839844
1708474897.6204987,15208.349999999999,65592.35,-8171.029999999999,10754026.0,-0.2656745910644531
1708474897.754482,15208.349999999999,65592.35,-8171.029999999999,10751501.0,-0.26509666442871094
1708474897.8884654,15208.349999999999,65588.38,-8171.029999999999,10749227.0,-0.26448822021484375
1708474898.0224488,15208.349999999999,65588.38,-8171.029999999999,10746786.0,-0.2639350891113281
1708474898.1564322,15208.349999999999,65584.41,-8171.029999999999,10744446.0,-0.26335906982421875
1708474898.2904153,15208.349999999999,65580.44,-8171.029999999999,10741898.0,-0.2627067565917969
1708474898.4243987,15208.349999999999,65580.44,-8171.029999999999,10739838.0,-0.2622108459472656
1708474898.558382,15208.349999999999,65576.46,-8171.029999999999,10737374.0,-0.26159095764160156
1708474898.6923654,15208.349999999999,65572.5,-8171.029999999999,10734698.0,-0.26095008850097656
1708474898.8263488,15208.349999999999,65568.53,-8174.98,10732537.0,-0.26039695739746094
1708474898.9603322,15208.349999999999,65568.53,-8174.98,10729925.0,-0.2597618103027344
1708474899.0943155,15208.349999999999,65564.56,-8174.98,10727387.0,-0.2591514587402344
1708474899.228299,15208.349999999999,65564.56,-8174.98,10725016.0,-0.2585315704345703
1708474899.362282,15208.349999999999,65560.59,-8174.98,10722465.0,-0.2579231262207031
1708474899.4962654,15208.349999999999,65560.59,-8174.98,10719947.0,-0.2573108673095703
1708474899.6302488,15208.349999999999,65556.61,-8174.98,10717359.0,-0.25662994384765625
1708474899.7642322,15208.349999999999,65556.61,-8174.98,10714905.0,-0.2560596466064453
1708474899.8982155,15208.349999999999,65552.64,-8174.98,10712331.0,-0.2554130554199219
1708474900.032199,15208.349999999999,65548.67,-8174.98,10709624.0,-0.25472068786621094
1708474900.1661823,15208.349999999999,65548.67,-8174.98,10707304.0,-0.2541637420654297
1708474900.3001657,15208.349999999999,65548.67,-8174.98,10704655.0,-0.25348854064941406
1708474900.4341488,15208.349999999999,65544.71,-8174.98,10701942.0,-0.25283050537109375
1708474900.5681322,15208.349999999999,65540.74,-8174.98,10699567.0,-0.25219154357910156
1708474900.7021155,15208.349999999999,65540.74,-8174.98,10696779.0,-0.2515430450439453
1708474900.836099,15208.349999999999,65536.77,-8178.939999999999,10694453.0,-0.25094032287597656
1708474900.9700823,15208.349999999999,65536.77,-8178.939999999999,10691807.0,-0.2502422332763672
1708474901.1040657,15208.349999999999,65536.77,-8178.939999999999,10689144.0,-0.24962234497070312
1708474901.238049,15208.349999999999,65532.8,-8178.939999999999,10686522.0,-0.24896240234375
1708474901.3720324,15208.349999999999,65532.8,-8178.939999999999,10683626.0,-0.24822616577148438
1708474901.5060155,15208.349999999999,65528.83,-8178.939999999999,10681163.0,-0.2476367950439453
1708474901.639999,15208.349999999999,65524.850000000006,-8178.939999999999,10678582.0,-0.24695968627929688
1708474901.7739823,15208.349999999999,65524.850000000006,-8178.939999999999,10675647.0,-0.2462482452392578
1708474901.9079657,15208.349999999999,65520.89,-8178.939999999999,10673325.0,-0.2456378936767578
1708474902.041949,15208.349999999999,65520.89,-8178.939999999999,10670509.0,-0.24494171142578125
1708474902.1759324,15208.349999999999,65516.92,-8178.939999999999,10667813.0,-0.24428176879882812
1708474902.3099158,15208.349999999999,65516.92,-8178.939999999999,10665295.0,-0.24360084533691406
1708474902.4438992,15208.349999999999,65516.92,-8178.939999999999,10662567.0,-0.24295997619628906
1708474902.5778823,15208.349999999999,65512.94,-8178.939999999999,10660009.0,-0.24229812622070312
1708474902.7118657,15208.349999999999,65512.94,-8178.939999999999,10657182.0,-0.2415599822998047
1708474902.845849,15208.349999999999,65508.97,-8178.939999999999,10654728.0,-0.240966796875
1708474902.9798324,15208.349999999999,65505.0,-8178.939999999999,10651967.0,-0.24026107788085938
1708474903.1138158,15208.349999999999,65505.0,-8178.939999999999,10649010.0,-0.239532470703125
1708474903.2477992,15208.349999999999,65505.0,-8178.939999999999,10646659.0,-0.238922119140625
1708474903.3817825,15208.349999999999,65505.0,-8178.939999999999,10643786.0,-0.23821258544921875
1708474903.515766,15208.349999999999,65501.03,-8182.889999999999,10641083.0,-0.2375354766845703
1708474903.6497493,15208.349999999999,65497.07000000001,-8182.889999999999,10638571.0,-0.23685455322265625
1708474903.7837324,15208.349999999999,65497.07000000001,-8182.889999999999,10635806.0,-0.2361907958984375
1708474903.9177158,15208.349999999999,65493.100000000006,-8182.889999999999,10633149.0,-0.2355213165283203
1708474904.0516992,15208.349999999999,65493.100000000006,-8182.889999999999,10630343.0,-0.23477745056152344
1708474904.1856825,15208.349999999999,65489.130000000005,-8182.889999999999,10627819.0,-0.23416900634765625
1708474904.319666,15208.349999999999,65489.130000000005,-8182.889999999999,10625134.0,-0.23346710205078125
1708474904.4536493,15208.349999999999,65489.130000000005,-8182.889999999999,10622219.0,-0.23273658752441406
1708474904.5876327,15208.349999999999,65485.16,-8182.889999999999,10619817.0,-0.23212242126464844
1708474904.721616,15208.349999999999,65485.16,-8182.889999999999,10617110.0,-0.23142623901367188
1708474904.8555992,15208.349999999999,65481.19,-8182.889999999999,10614203.0,-0.23072433471679688
1708474904.9895825,15208.349999999999,65481.19,-8182.889999999999,10611728.0,-0.23004722595214844
1708474905.123566,15208.349999999999,65477.21000000001,-8182.889999999999,10608990.0,-0.2293834686279297
1708474905.2575493,15208.349999999999,65477.21000000001,-8182.889999999999,10606468.0,-0.22871971130371094
1708474905.3915327,15208.349999999999,65473.25,-8186.8499999999985,10603596.0,-0.2279796600341797
1708474905.525516,15208.349999999999,65473.25,-8186.8499999999985,10601161.0,-0.22738265991210938
1708474905.6594994,15208.349999999999,65469.28,-8186.8499999999985,10598434.0,-0.22668075561523438
1708474905.7934828,15208.349999999999,65469.28,-8186.8499999999985,10595484.0,-0.22594261169433594
1708474905.927466,15208.349999999999,65469.28,-8186.8499999999985,10593185.0,-0.2253398895263672
1708474906.0614493,15208.349999999999,65469.28,-8186.8499999999985,10590366.0,-0.22462844848632812
1708474906.1954327,15208.349999999999,65465.31,-8186.8499999999985,10587529.0,-0.22394371032714844
1708474906.329416,15208.349999999999,65461.33,-8186.8499999999985,10585181.0,-0.2232818603515625
1708474906.4633994,15208.349999999999,65461.33,-8186.8499999999985,10582377.0,-0.22260665893554688
1708474906.5973828,15208.349999999999,65461.33,-8186.8499999999985,10579770.0,-0.2219390869140625
1708474906.7313662,15208.349999999999,65457.36,-8186.8499999999985,10577196.0,-0.22123336791992188
1708474906.8653495,15208.349999999999,65457.36,-8186.8499999999985,10574616.0,-0.22061729431152344
1708474906.9993327,15208.349999999999,65453.39,-8186.8499999999985,10571899.0,-0.2199230194091797
1708474907.133316,15208.349999999999,65453.39,-8186.8499999999985,10569057.0,-0.21919822692871094
1708474907.2672994,15208.349999999999,65453.39,-8186.8499999999985,10566739.0,-0.21860313415527344
1708474907.4012828,15208.349999999999,65449.42,-8186.8499999999985,10563922.0,-0.21788978576660156
1708474907.5352662,15208.349999999999,65449.42,-8190.799999999999,10561133.0,-0.2171916961669922
1708474907.6692495,15208.349999999999,65445.46000000001,-8190.799999999999,10558913.0,-0.21657371520996094
1708474907.803233,15208.349999999999,65445.46000000001,-8190.799999999999,10556124.0,-0.21589279174804688
1708474907.9372163,15208.349999999999,65445.46000000001,-8190.799999999999,10553503.0,-0.21523475646972656
1708474908.0711994,15208.349999999999,65441.490000000005,-8190.799999999999,10550863.0,-0.2145099639892578
1708474908.2051828,15208.349999999999,65437.520000000004,-8190.799999999999,10548308.0,-0.21390533447265625
1708474908.3391662,15208.349999999999,65437.520000000004,-8190.799999999999,10545786.0,-0.21324539184570312
1708474908.4731495,15208.349999999999,65437.520000000004,-8190.799999999999,10542914.0,-0.2125072479248047
1708474908.607133,15208.349999999999,65437.520000000004,-8190.799999999999,10540572.0,-0.21192550659179688
1708474908.7411163,15208.349999999999,65433.55,-8190.799999999999,10537957.0,-0.21123886108398438
1708474908.8750997,15208.349999999999,65433.55,-8190.799999999999,10535025.0,-0.2105274200439453
1708474909.009083,15208.349999999999,65429.57000000001,-8190.799999999999,10532828.0,-0.2099151611328125
1708474909.1430662,15208.349999999999,65429.57000000001,-8190.799999999999,10530099.0,-0.20923995971679688
1708474909.2770495,15208.349999999999,65429.57000000001,-8194.759999999998,10527490.0,-0.2085857391357422
1708474909.411033,15208.349999999999,65425.600000000006,-8194.759999999998,10525124.0,-0.2079296112060547
1708474909.5450163,15208.349999999999,65421.64,-8194.759999999998,10522532.0,-0.20730018615722656
1708474909.6789997,15208.349999999999,65421.64,-8194.759999999998,10519946.0,-0.20664596557617188
1708474909.812983,15208.349999999999,65421.64,-8194.759999999998,10517345.0,-0.20593833923339844
1708474909.9469664,15208.349999999999,65417.67,-8194.759999999998,10514931.0,-0.20536041259765625
1708474910.0809498,15208.349999999999,65417.67,-8194.759999999998,10512353.0,-0.20468521118164062
1708474910.2149332,15208.349999999999,65417.67,-8194.759999999998,10509574.0,-0.20398330688476562
1708474910.3489163,15208.349999999999,65417.67,-8194.759999999998,10507370.0,-0.20340728759765625
1708474910.4828997,15208.349999999999,65413.69,-8198.71,10504825.0,-0.2027454376220703
1708474910.616883,15208.349999999999,65409.72,-8198.71,10502255.0,-0.20210647583007812
1708474910.7508664,15208.349999999999,65409.72,-8198.71,10499945.0,-0.20145225524902344
1708474910.8848498,15208.349999999999,65409.72,-8198.71,10497296.0,-0.2008380889892578
1708474911.0188332,15208.349999999999,65405.75,-8198.71,10494844.0,-0.20020484924316406
1708474911.1528165,15208.349999999999,65405.75,-8198.71,10492212.0,-0.1994953155517578
1708474911.2868,15208.349999999999,65405.75,-8198.71,10489860.0,-0.19894027709960938
1708474911.420783,15208.349999999999,65401.78,-8198.71,10487328.0,-0.198272705078125
1708474911.5547664,15208.349999999999,65401.78,-8198.71,10484628.0,-0.1975841522216797
