,x,y,z,temp,temp_error
1708471949.058987,13622.32,44261.53,-1348.6500000000015,10763805.0,-0.2259979248046875
1708471949.1960936,14266.269999999997,46826.16,-1562.2200000000012,10825563.0,-0.23897171020507812
1708471949.3332,14854.580000000002,49319.32000000001,-1803.4799999999996,10887104.0,-0.2521476745605469
1708471949.4703066,15379.269999999997,51709.25,-2072.4199999999983,10946917.0,-0.265350341796875
1708471949.607413,15832.419999999998,53968.19,-2373.0,11003419.0,-0.2782917022705078
1708471949.7445197,16206.080000000002,56068.32000000001,-2705.220000000001,11055095.0,-0.2908344268798828
1708471949.8816261,16500.230000000003,57985.83,-3061.1699999999983,11099270.0,-0.30259132385253906
1708471950.0187328,16714.870000000003,59700.86,-3432.9399999999987,11133551.0,-0.312957763671875
1708471950.1558394,16857.980000000003,61209.47,-3812.619999999999,11156599.0,-0.32161521911621094
1708471950.2929459,16933.5,62507.66,-4192.299999999999,11168894.0,-0.32842254638671875
1708471950.4300525,16949.4,63611.32000000001,-4564.07,11172409.0,-0.33356285095214844
1708471950.567159,16917.6,64536.33,-4920.02,11169324.0,-0.3373260498046875
1708471950.7042656,16850.019999999997,65298.57000000001,-5260.1500000000015,11161832.0,-0.33999061584472656
1708471950.841372,16750.65,65921.85,-5580.5,11151939.0,-0.34183311462402344
1708471950.9784787,16631.4,66426.05,-5877.130000000001,11140923.0,-0.34306907653808594
1708471951.1155853,16496.25,66827.01,-6150.02,11129220.0,-0.3437480926513672
1708471951.2526917,16349.169999999998,67144.61,-6399.189999999999,11117551.0,-0.3439788818359375
1708471951.3897984,16198.120000000003,67390.76,-6624.619999999999,11106687.0,-0.34389305114746094
1708471951.5269048,16047.080000000002,67581.32,-6830.279999999999,11096919.0,-0.3436431884765625
1708471951.6640115,15896.019999999997,67724.24,-7016.169999999998,11088440.0,-0.3433246612548828
1708471951.801118,15748.949999999997,67827.46,-7182.279999999999,11081074.0,-0.34293174743652344
1708471951.9382246,15605.849999999999,67898.92,-7328.610000000001,11074871.0,-0.3425273895263672
1708471952.0753312,15470.699999999997,67946.56,-7459.130000000001,11069504.0,-0.3421211242675781
1708471952.2124376,15343.5,67974.34,-7573.82,11064741.0,-0.3416881561279297
1708471952.3495443,15224.25,67986.25,-7676.66,11060461.0,-0.3412189483642578
1708471952.4866507,15112.949999999997,67990.23,-7767.619999999999,11056653.0,-0.34070777893066406
1708471952.6237574,15009.599999999999,67982.28,-7846.720000000001,11053323.0,-0.34021949768066406
1708471952.760864,14914.199999999997,67970.38,-7917.91,11050572.0,-0.3397865295410156
1708471952.8979704,14822.769999999997,67950.53,-7981.189999999999,11047881.0,-0.3393115997314453
1708471953.035077,14739.300000000003,67930.67,-8036.560000000001,11045582.0,-0.33885955810546875
1708471953.1721835,14663.769999999997,67906.85,-8084.02,11043812.0,-0.338470458984375
1708471953.3092902,14596.199999999997,67883.04,-8127.52,11041864.0,-0.3380851745605469
1708471953.4463966,14532.599999999999,67855.25,-8163.119999999999,11040001.0,-0.337677001953125
1708471953.5835032,14476.949999999997,67831.43,-8194.759999999998,11038373.0,-0.3372650146484375
1708471953.72061,14425.269999999997,67807.6,-8222.439999999999,11036944.0,-0.3368949890136719
1708471953.8577163,14377.57,67779.82,-8246.169999999998,11035429.0,-0.3365325927734375
1708471953.994823,14333.849999999999,67756.0,-8265.95,11033961.0,-0.336151123046875
1708471954.1319294,14294.099999999999,67732.17,-8285.73,11032617.0,-0.3357868194580078
1708471954.269036,14258.32,67712.32,-8301.54,11031494.0,-0.33544349670410156
1708471954.4061425,14226.519999999997,67692.48,-8313.41,11030409.0,-0.3351593017578125
1708471954.5432491,14198.699999999997,67672.63,-8325.27,11029239.0,-0.3348541259765625
1708471954.6803558,14174.849999999999,67652.78,-8337.14,11027989.0,-0.334503173828125
1708471954.8174622,14151.0,67636.89,-8345.05,11027023.0,-0.33420562744140625
1708471954.9545689,14131.120000000003,67621.01,-8352.96,11025961.0,-0.3339195251464844
1708471955.0916753,14111.25,67605.14,-8360.869999999999,11024880.0,-0.33362388610839844
1708471955.228782,14095.349999999999,67593.22,-8364.82,11023724.0,-0.3332958221435547
1708471955.3658884,14079.449999999997,67581.32,-8368.779999999999,11022804.0,-0.33301544189453125
1708471955.502995,14067.519999999997,67569.41,-8372.73,11021943.0,-0.3327789306640625
1708471955.6401017,14055.599999999999,67557.5,-8376.689999999999,11020968.0,-0.3325233459472656
1708471955.777208,14047.650000000001,67545.59,-8380.64,11019809.0,-0.33221435546875
1708471955.9143147,14039.699999999997,67537.64,-8384.599999999999,11018886.0,-0.33194732666015625
1708471956.0514212,14031.75,67529.7,-8384.599999999999,11017915.0,-0.33168983459472656
1708471956.1885278,14023.800000000003,67521.77,-8384.599999999999,11016885.0,-0.3314208984375
1708471956.3256342,14015.849999999999,67513.83,-8384.599999999999,11015760.0,-0.3311176300048828
1708471956.462741,14011.870000000003,67505.89,-8384.599999999999,11015017.0,-0.33087921142578125
1708471956.5998476,14007.900000000001,67497.94,-8384.599999999999,11014237.0,-0.3306694030761719
1708471956.736954,14003.919999999998,67490.0,-8384.599999999999,11013124.0,-0.3304157257080078
1708471956.8740606,13999.949999999997,67486.04,-8384.599999999999,11012162.0,-0.33014869689941406
1708471957.011167,13995.980000000003,67478.1,-8384.599999999999,11011161.0,-0.3298797607421875
1708471957.1482737,13992.0,67474.13,-8384.599999999999,11010309.0,-0.3296527862548828
1708471957.2853801,13992.0,67470.16,-8384.599999999999,11009090.0,-0.32936859130859375
1708471957.4224868,13992.0,67466.18,-8384.599999999999,11008006.0,-0.3290729522705078
1708471957.5595934,13992.0,67462.21,-8384.599999999999,11007105.0,-0.3288307189941406
1708471957.6966999,13992.0,67458.25,-8384.599999999999,11006408.0,-0.328643798828125
1708471957.8338065,13988.019999999997,67454.28,-8384.599999999999,11005265.0,-0.32837677001953125
1708471957.970913,13988.019999999997,67450.31,-8384.599999999999,11004318.0,-0.32811737060546875
1708471958.1080196,13988.019999999997,67446.33,-8384.599999999999,11003403.0,-0.32787322998046875
1708471958.245126,13988.019999999997,67442.36,-8384.599999999999,11002382.0,-0.32763099670410156
1708471958.3822327,13988.019999999997,67438.4,-8384.599999999999,11001222.0,-0.3273448944091797
1708471958.5193393,13988.019999999997,67434.42,-8384.599999999999,11000213.0,-0.32706451416015625
1708471958.6564457,13988.019999999997,67430.46,-8384.599999999999,10999227.0,-0.3268146514892578
1708471958.7935524,13988.019999999997,67426.49,-8384.599999999999,10998320.0,-0.32659912109375
1708471958.9306588,13988.019999999997,67422.52,-8384.599999999999,10997307.0,-0.3263511657714844
1708471959.0677655,13988.019999999997,67418.55,-8384.599999999999,10996196.0,-0.3260669708251953
1708471959.2048721,13988.019999999997,67414.57,-8384.599999999999,10995140.0,-0.3258018493652344
1708471959.3419785,13988.019999999997,67410.6,-8384.599999999999,10994018.0,-0.32554054260253906
1708471959.4790852,13988.019999999997,67406.64,-8384.599999999999,10992613.0,-0.32521629333496094
1708471959.6161916,13988.019999999997,67402.66,-8384.599999999999,10991530.0,-0.3249244689941406
1708471959.7532983,13988.019999999997,67398.69,-8384.599999999999,10990718.0,-0.32468605041503906
1708471959.8904047,13988.019999999997,67394.73,-8384.599999999999,10989572.0,-0.3244285583496094
1708471960.0275114,13988.019999999997,67390.76,-8384.599999999999,10988420.0,-0.32416534423828125
1708471960.164618,13988.019999999997,67386.79,-8384.599999999999,10987160.0,-0.3238487243652344
1708471960.3017244,13988.019999999997,67382.82,-8384.599999999999,10986113.0,-0.3235759735107422
1708471960.438831,13988.019999999997,67382.82,-8384.599999999999,10984961.0,-0.3233051300048828
1708471960.5759375,13988.019999999997,67378.85,-8384.599999999999,10983578.0,-0.3229808807373047
1708471960.7130442,13988.019999999997,67374.88,-8384.599999999999,10982392.0,-0.3226585388183594
1708471960.8501506,13988.019999999997,67374.88,-8384.599999999999,10981343.0,-0.3223876953125
1708471960.9872572,13988.019999999997,67370.9,-8384.599999999999,10980076.0,-0.3221168518066406
1708471961.124364,13988.019999999997,67366.93,-8384.599999999999,10978744.0,-0.3218040466308594
1708471961.2614703,13988.019999999997,67362.96,-8384.599999999999,10977703.0,-0.3215045928955078
1708471961.398577,13988.019999999997,67362.96,-8384.599999999999,10976383.0,-0.3212013244628906
1708471961.5356834,13988.019999999997,67359.0,-8384.599999999999,10975189.0,-0.3209056854248047
1708471961.67279,13988.019999999997,67355.03,-8384.599999999999,10973848.0,-0.3205757141113281
1708471961.8098965,13988.019999999997,67351.06,-8384.599999999999,10972626.0,-0.3202476501464844
1708471961.9470031,13988.019999999997,67351.06,-8384.599999999999,10971570.0,-0.3199634552001953
1708471962.0841098,13988.019999999997,67347.09,-8384.599999999999,10970427.0,-0.3196983337402344
1708471962.2212162,13988.019999999997,67343.12,-8384.599999999999,10969073.0,-0.3193836212158203
1708471962.3583229,13988.019999999997,67343.12,-8384.599999999999,10967806.0,-0.31905364990234375
1708471962.4954293,13988.019999999997,67339.14,-8384.599999999999,10966573.0,-0.3187389373779297
1708471962.632536,13988.019999999997,67335.17,-8384.599999999999,10965232.0,-0.3184242248535156
1708471962.7696424,13988.019999999997,67335.17,-8384.599999999999,10963823.0,-0.3180885314941406
1708471962.906749,13988.019999999997,67331.21,-8384.599999999999,10962529.0,-0.31774139404296875
1708471963.0438557,13988.019999999997,67327.24,-8384.599999999999,10961492.0,-0.31745147705078125
1708471963.180962,13988.019999999997,67323.27,-8384.599999999999,10960474.0,-0.31719970703125
1708471963.3180687,13988.019999999997,67319.29,-8384.599999999999,10959164.0,-0.31688499450683594
1708471963.4551752,13988.019999999997,67315.32,-8384.599999999999,10957951.0,-0.31655311584472656
1708471963.5922818,13988.019999999997,67311.35,-8384.599999999999,10956844.0,-0.3162651062011719
1708471963.7293882,13988.019999999997,67311.35,-8384.599999999999,10955520.0,-0.3159523010253906
1708471963.866495,13988.019999999997,67307.39,-8384.599999999999,10954136.0,-0.31560516357421875
1708471964.0036016,13988.019999999997,67303.42,-8384.599999999999,10952843.0,-0.3152599334716797
1708471964.140708,13988.019999999997,67299.45,-8384.599999999999,10951916.0,-0.3150005340576172
1708471964.2778146,13988.019999999997,67299.45,-8384.599999999999,10950569.0,-0.31470489501953125
1708471964.414921,13988.019999999997,67295.48,-8384.599999999999,10949430.0,-0.3143939971923828
1708471964.5520277,13988.019999999997,67291.51,-8384.599999999999,10948079.0,-0.314056396484375
1708471964.6891341,13988.019999999997,67287.53,-8384.599999999999,10946953.0,-0.31376075744628906
1708471964.8262408,13988.019999999997,67283.57,-8384.599999999999,10945590.0,-0.31344032287597656
1708471964.9633474,13988.019999999997,67279.6,-8384.599999999999,10944153.0,-0.3130779266357422
1708471965.1004539,13988.019999999997,67279.6,-8384.599999999999,10943011.0,-0.3127632141113281
1708471965.2375605,13988.019999999997,67275.62,-8384.599999999999,10941824.0,-0.3124732971191406
1708471965.374667,13988.019999999997,67275.62,-8384.599999999999,10940408.0,-0.31215858459472656
1708471965.5117736,13988.019999999997,67271.65,-8384.599999999999,10939041.0,-0.3118133544921875
1708471965.6488802,13988.019999999997,67271.65,-8384.599999999999,10937819.0,-0.31148719787597656
1708471965.7859867,13988.019999999997,67267.68,-8384.599999999999,10936635.0,-0.3111858367919922
1708471965.9230933,13988.019999999997,67267.68,-8384.599999999999,10935179.0,-0.3108406066894531
1708471966.0601997,13988.019999999997,67263.72,-8384.599999999999,10933896.0,-0.31048583984375
1708471966.1973064,13988.019999999997,67259.75,-8384.599999999999,10932774.0,-0.3101768493652344
1708471966.3344128,13988.019999999997,67259.75,-8384.599999999999,10931512.0,-0.3098945617675781
1708471966.4715195,13988.019999999997,67255.78,-8384.599999999999,10930176.0,-0.3095664978027344
1708471966.6086261,13988.019999999997,67251.81,-8384.599999999999,10928629.0,-0.30919837951660156
1708471966.7457325,13988.019999999997,67247.84,-8384.599999999999,10927395.0,-0.30887413024902344
1708471966.8828392,13988.019999999997,67247.84,-8384.599999999999,10925945.0,-0.3085346221923828
1708471967.0199456,13988.019999999997,67247.84,-8384.599999999999,10924383.0,-0.3081493377685547
1708471967.1570523,13988.019999999997,67243.86,-8384.599999999999,10923090.0,-0.3077964782714844
1708471967.2941587,13988.019999999997,67239.89,-8384.599999999999,10921915.0,-0.3074951171875
1708471967.4312654,13988.019999999997,67239.89,-8384.599999999999,10920525.0,-0.3071708679199219
1708471967.568372,13988.019999999997,67235.92,-8384.599999999999,10919093.0,-0.30682373046875
1708471967.7054784,13988.019999999997,67231.96,-8384.599999999999,10917772.0,-0.30646324157714844
1708471967.842585,13988.019999999997,67231.96,-8384.599999999999,10916332.0,-0.3061180114746094
1708471967.9796915,13988.019999999997,67231.96,-8384.599999999999,10914865.0,-0.3057670593261719
1708471968.1167982,13988.019999999997,67227.99,-8384.599999999999,10913367.0,-0.30537986755371094
1708471968.2539046,13988.019999999997,67224.01,-8384.599999999999,10912120.0,-0.30503273010253906
1708471968.3910112,13988.019999999997,67220.05,-8384.599999999999,10910931.0,-0.30472564697265625
1708471968.528118,13988.019999999997,67220.05,-8384.599999999999,10909560.0,-0.30440711975097656
1708471968.6652243,13988.019999999997,67216.08,-8384.599999999999,10907870.0,-0.3040046691894531
1708471968.802331,13988.019999999997,67216.08,-8384.599999999999,10906547.0,-0.3036518096923828
1708471968.9394374,13988.019999999997,67212.1,-8384.599999999999,10905073.0,-0.30330657958984375
1708471969.076544,13988.019999999997,67208.14,-8384.599999999999,10903523.0,-0.30292320251464844
1708471969.2136505,13988.019999999997,67204.17,-8384.599999999999,10902080.0,-0.3025341033935547
1708471969.3507571,13988.019999999997,67200.2,-8384.599999999999,10900817.0,-0.3021984100341797
1708471969.4878638,13988.019999999997,67200.2,-8384.599999999999,10899408.0,-0.30187034606933594
1708471969.6249702,13988.019999999997,67200.2,-8384.599999999999,10897906.0,-0.30150794982910156
1708471969.7620769,13988.019999999997,67196.23,-8384.599999999999,10896338.0,-0.3011131286621094
1708471969.8991833,13988.019999999997,67192.25,-8384.599999999999,10894953.0,-0.30076026916503906
1708471970.03629,13988.019999999997,67188.28,-8384.599999999999,10893462.0,-0.3003997802734375
1708471970.1733963,13988.019999999997,67188.28,-8384.599999999999,10891914.0,-0.29999351501464844
1708471970.310503,13988.019999999997,67188.28,-8384.599999999999,10890506.0,-0.29961204528808594
1708471970.4476097,13988.019999999997,67184.32,-8384.599999999999,10889253.0,-0.29929161071777344
1708471970.584716,13988.019999999997,67180.34,-8384.599999999999,10887631.0,-0.2989349365234375
1708471970.7218227,13988.019999999997,67180.34,-8384.599999999999,10886115.0,-0.2985382080078125
1708471970.8589292,13988.019999999997,67176.38,-8384.599999999999,10884614.0,-0.29816436767578125
1708471970.9960358,13988.019999999997,67176.38,-8384.599999999999,10883076.0,-0.2977924346923828
1708471971.1331422,13988.019999999997,67176.38,-8384.599999999999,10881363.0,-0.2973670959472656
1708471971.270249,13988.019999999997,67176.38,-8384.599999999999,10880087.0,-0.2970008850097656
1708471971.4073555,13988.019999999997,67172.41,-8384.599999999999,10878744.0,-0.2966575622558594
1708471971.544462,13988.019999999997,67168.44,-8384.599999999999,10877302.0,-0.2963218688964844
1708471971.6815686,13988.019999999997,67168.44,-8384.599999999999,10875736.0,-0.295928955078125
1708471971.818675,13988.019999999997,67164.47,-8384.599999999999,10874388.0,-0.29555511474609375
1708471971.9557817,13988.019999999997,67160.5,-8384.599999999999,10872889.0,-0.2951946258544922
1708471972.092888,13988.019999999997,67156.53,-8384.599999999999,10871416.0,-0.2948322296142578
1708471972.2299948,13988.019999999997,67156.53,-8384.599999999999,10869808.0,-0.2944164276123047
1708471972.3671014,13988.019999999997,67152.56,-8384.599999999999,10868161.0,-0.2939949035644531
1708471972.5042078,13988.019999999997,67152.56,-8384.599999999999,10867106.0,-0.2937049865722656
1708471972.6413145,13988.019999999997,67148.58,-8384.599999999999,10865464.0,-0.29332733154296875
1708471972.778421,13988.019999999997,67148.58,-8384.599999999999,10863985.0,-0.2929401397705078
1708471972.9155276,13988.019999999997,67148.58,-8384.599999999999,10862558.0,-0.29256629943847656
1708471973.0526342,13988.019999999997,67144.61,-8384.599999999999,10861089.0,-0.2922019958496094
1708471973.1897407,13988.019999999997,67140.64,-8384.599999999999,10859544.0,-0.2918128967285156
1708471973.3268473,13988.019999999997,67136.67,-8384.599999999999,10858152.0,-0.2914257049560547
1708471973.4639537,13988.019999999997,67136.67,-8384.599999999999,10857061.0,-0.2911090850830078
1708471973.6010604,13988.019999999997,67132.71,-8384.599999999999,10855752.0,-0.29079246520996094
1708471973.7381668,13988.019999999997,67128.74,-8384.599999999999,10854131.0,-0.29039955139160156
1708471973.8752735,13988.019999999997,67124.77,-8384.599999999999,10852864.0,-0.2900409698486328
1708471974.0123801,13988.019999999997,67124.77,-8384.599999999999,10851416.0,-0.2896900177001953
1708471974.1494865,13988.019999999997,67120.8,-8384.599999999999,10850042.0,-0.2893390655517578
1708471974.2865932,13988.019999999997,67120.8,-8384.599999999999,10848534.0,-0.2889366149902344
1708471974.4236996,13988.019999999997,67116.82,-8384.599999999999,10847418.0,-0.2886066436767578
1708471974.5608063,13988.019999999997,67116.82,-8384.599999999999,10846169.0,-0.28830528259277344
1708471974.6979127,13988.019999999997,67112.85,-8384.599999999999,10844765.0,-0.2879619598388672
1708471974.8350194,13988.019999999997,67108.89,-8384.599999999999,10843200.0,-0.287567138671875
1708471974.972126,13988.019999999997,67104.92,-8384.599999999999,10842060.0,-0.2872486114501953
1708471975.1092324,13988.019999999997,67100.95,-8384.599999999999,10840681.0,-0.2869110107421875
1708471975.246339,13988.019999999997,67100.95,-8384.599999999999,10839086.0,-0.2865180969238281
1708471975.3834455,13988.019999999997,67096.97,-8384.599999999999,10837886.0,-0.2861595153808594
1708471975.5205522,13988.019999999997,67093.0,-8384.599999999999,10836730.0,-0.28586769104003906
1708471975.6576586,13988.019999999997,67093.0,-8384.599999999999,10835447.0,-0.2855548858642578
1708471975.7947652,13988.019999999997,67089.04,-8380.64,10834094.0,-0.2852058410644531
1708471975.931872,13988.019999999997,67085.07,-8380.64,10832677.0,-0.2848396301269531
1708471976.0689783,13988.019999999997,67085.07,-8380.64,10831441.0,-0.2845172882080078
1708471976.206085,13988.019999999997,67081.1,-8380.64,10830079.0,-0.2841835021972656
1708471976.3431914,13988.019999999997,67081.1,-8380.64,10828573.0,-0.2837944030761719
1708471976.480298,13988.019999999997,67077.13,-8380.64,10827350.0,-0.28345680236816406
1708471976.6174045,13988.019999999997,67073.16,-8380.64,10826266.0,-0.28316497802734375
1708471976.754511,13988.019999999997,67073.16,-8380.64,10824926.0,-0.2828540802001953
1708471976.8916178,13988.019999999997,67069.18,-8380.64,10823605.0,-0.28250885009765625
1708471977.0287242,13988.019999999997,67065.21,-8380.64,10822299.0,-0.2821636199951172
1708471977.1658309,13988.019999999997,67061.25,-8380.64,10821031.0,-0.2818412780761719
1708471977.3029373,13988.019999999997,67057.28,-8380.64,10819645.0,-0.28150367736816406
1708471977.440044,13988.019999999997,67057.28,-8380.64,10818163.0,-0.28111839294433594
1708471977.5771503,13988.019999999997,67053.31,-8380.64,10817133.0,-0.2808094024658203
1708471977.714257,13988.019999999997,67053.31,-8380.64,10816036.0,-0.2805461883544922
1708471977.8513637,13988.019999999997,67049.33,-8380.64,10814646.0,-0.28021240234375
