,x,y,z,temp,temp_error
1708474367.747676,14234.480000000003,43269.03,-965.0200000000004,9491527.0,-0.24880599975585938
1708474367.8816504,14826.75,45662.94,-1186.5,9553352.0,-0.2582569122314453
1708474368.015625,15371.330000000002,47989.36,-1443.5699999999997,9623321.0,-0.26784515380859375
1708474368.1495996,15860.25,50220.5,-1732.2900000000009,9705299.0,-0.2784767150878906
1708474368.2835739,16289.550000000003,52332.55,-2044.7299999999996,9794288.0,-0.28887367248535156
1708474368.4175484,16655.25,54305.64,-2384.8600000000006,9891712.0,-0.29815101623535156
1708474368.551523,16957.35,56119.92,-2748.720000000001,10003427.0,-0.3073616027832031
1708474368.6854975,17191.870000000003,57759.53,-3124.4500000000007,10127768.0,-0.3158435821533203
1708474368.819472,17366.78,59216.53,-3508.09,10264201.0,-0.32233619689941406
1708474368.9534466,17486.019999999997,60490.89,-3891.720000000001,10419874.0,-0.3276557922363281
1708474369.0874212,17553.6,61586.61,-4267.439999999999,10597999.0,-0.33209228515625
1708474369.2213957,17577.449999999997,62515.600000000006,-4627.3499999999985,10799200.0,-0.3347949981689453
1708474369.35537,17565.519999999997,63293.72,-4967.48,11030295.0,-0.3363380432128906
1708474369.4893446,17525.78,63940.83,-5287.84,11110477.0,-0.3374214172363281
1708474369.6233191,17462.18,64472.81,-5584.459999999999,11097190.0,-0.3376598358154297
1708474369.7572937,17378.699999999997,64901.57000000001,-5857.3499999999985,11083198.0,-0.33725547790527344
1708474369.8912683,17283.300000000003,65246.96000000001,-6110.470000000001,11070054.0,-0.3366355895996094
1708474370.0252428,17175.980000000003,65520.89,-6339.860000000001,11057415.0,-0.3359088897705078
1708474370.1592174,17064.68,65735.27,-6545.52,11045277.0,-0.3347911834716797
1708474370.293192,16949.4,65902.0,-6731.41,11034376.0,-0.3336372375488281
1708474370.4271662,16834.120000000003,66029.05,-6897.52,11025004.0,-0.33258628845214844
1708474370.5611408,16718.85,66120.35,-7043.8499999999985,11016059.0,-0.33135223388671875
1708474370.6951153,16607.550000000003,66187.85,-7174.369999999999,11008133.0,-0.3301563262939453
1708474370.8290899,16496.25,66231.52,-7289.07,11001335.0,-0.3289966583251953
1708474370.9630644,16388.92,66259.31,-7391.889999999999,10995146.0,-0.3279151916503906
1708474371.097039,16289.550000000003,66275.18,-7478.91,10989676.0,-0.326812744140625
1708474371.2310135,16194.150000000001,66279.16,-7558.0,10984608.0,-0.32572174072265625
1708474371.364988,16102.730000000003,66275.18,-7625.240000000002,10980562.0,-0.3248023986816406
1708474371.4989624,16019.25,66263.28,-7684.57,10976287.0,-0.32378578186035156
1708474371.632937,15939.75,66247.4,-7735.98,10972627.0,-0.3228759765625
1708474371.7669115,15868.199999999997,66227.55,-7779.48,10969414.0,-0.3219738006591797
1708474371.900886,15800.620000000003,66207.69,-7819.029999999999,10966471.0,-0.32118988037109375
1708474372.0348606,15737.019999999997,66187.85,-7854.630000000001,10963733.0,-0.32038307189941406
1708474372.1688352,15677.400000000001,66164.03,-7886.27,10961017.0,-0.3195838928222656
1708474372.3028097,15621.75,66140.21,-7910.0,10958929.0,-0.31893157958984375
1708474372.4367843,15570.080000000002,66116.39,-7933.73,10956583.0,-0.31821250915527344
1708474372.5707586,15526.349999999999,66092.57,-7953.5,10954481.0,-0.31757545471191406
1708474372.7047331,15482.620000000003,66072.72,-7969.32,10952679.0,-0.3169403076171875
1708474372.8387077,15442.870000000003,66052.86,-7985.139999999999,10950937.0,-0.31640052795410156
1708474372.9726822,15407.099999999999,66033.01,-7997.009999999998,10949293.0,-0.3158397674560547
1708474373.1066568,15375.300000000003,66013.17,-8008.869999999999,10947420.0,-0.31524085998535156
1708474373.2406313,15347.480000000003,65993.32,-8016.779999999999,10946090.0,-0.3148002624511719
1708474373.374606,15319.650000000001,65977.44,-8024.689999999999,10944521.0,-0.31427955627441406
1708474373.5085804,15295.800000000003,65961.56,-8032.5999999999985,10942889.0,-0.3137950897216797
1708474373.6425548,15275.919999999998,65945.67,-8036.560000000001,10941763.0,-0.3133506774902344
1708474373.7765293,15256.050000000003,65929.8,-8040.509999999998,10940429.0,-0.3129539489746094
1708474373.9105039,15240.150000000001,65913.92,-8044.470000000001,10939226.0,-0.3125476837158203
1708474374.0444784,15224.25,65902.0,-8048.419999999998,10937896.0,-0.3121013641357422
1708474374.178453,15208.349999999999,65890.1,-8052.380000000001,10936870.0,-0.31178855895996094
1708474374.3124275,15196.419999999998,65878.18,-8056.34,10935622.0,-0.3113861083984375
1708474374.446402,15184.5,65866.28,-8060.290000000001,10934347.0,-0.3110065460205078
1708474374.5803766,15172.580000000002,65854.36,-8060.290000000001,10933358.0,-0.3106689453125
1708474374.714351,15164.620000000003,65846.42,-8064.25,10932188.0,-0.31034088134765625
1708474374.8483255,15156.669999999998,65838.49,-8064.25,10931037.0,-0.3100128173828125
1708474374.9823,15148.730000000003,65830.55,-8064.25,10929998.0,-0.30965614318847656
1708474375.1162746,15140.769999999997,65822.6,-8064.25,10928855.0,-0.3093700408935547
1708474375.2502491,15132.830000000002,65814.67,-8064.25,10927819.0,-0.30904579162597656
1708474375.3842237,15128.849999999999,65806.73,-8064.25,10926469.0,-0.3086891174316406
1708474375.5181983,15124.870000000003,65798.78,-8064.25,10925580.0,-0.3084259033203125
1708474375.6521728,15120.900000000001,65790.85,-8064.25,10924343.0,-0.3080921173095703
1708474375.786147,15116.919999999998,65782.91,-8064.25,10923130.0,-0.30779075622558594
1708474375.9201217,15112.949999999997,65778.93,-8064.25,10921971.0,-0.3074493408203125
1708474376.0540962,15108.980000000003,65774.96,-8064.25,10920914.0,-0.3071861267089844
1708474376.1880708,15105.0,65771.0,-8064.25,10919754.0,-0.30687713623046875
1708474376.3220453,15105.0,65767.03,-8068.200000000001,10918298.0,-0.3065147399902344
1708474376.4560199,15105.0,65763.06,-8068.200000000001,10917370.0,-0.30624961853027344
1708474376.5899944,15101.019999999997,65759.09,-8068.200000000001,10916019.0,-0.30591773986816406
1708474376.723969,15101.019999999997,65755.12,-8068.200000000001,10914624.0,-0.30559730529785156
1708474376.8579433,15101.019999999997,65751.14,-8068.200000000001,10913577.0,-0.3052711486816406
1708474376.9919178,15101.019999999997,65747.17,-8068.200000000001,10912175.0,-0.30496978759765625
1708474377.1258924,15101.019999999997,65743.21,-8072.16,10910818.0,-0.30463600158691406
1708474377.259867,15101.019999999997,65739.24,-8072.16,10909309.0,-0.3042449951171875
1708474377.3938415,15101.019999999997,65735.27,-8072.16,10908086.0,-0.30396461486816406
1708474377.527816,15101.019999999997,65731.29,-8072.16,10906531.0,-0.3035888671875
1708474377.6617906,15101.019999999997,65727.32,-8076.110000000001,10904864.0,-0.3032112121582031
1708474377.7957652,15101.019999999997,65723.35,-8076.110000000001,10903547.0,-0.30286407470703125
1708474377.9297395,15101.019999999997,65719.39,-8076.110000000001,10902021.0,-0.3025093078613281
1708474378.063714,15101.019999999997,65715.42,-8076.110000000001,10900505.0,-0.30214881896972656
1708474378.1976886,15101.019999999997,65711.45,-8076.110000000001,10898865.0,-0.3017234802246094
1708474378.3316631,15101.019999999997,65707.48,-8076.110000000001,10897339.0,-0.3013935089111328
1708474378.4656377,15101.019999999997,65703.5,-8076.110000000001,10895750.0,-0.30098533630371094
1708474378.5996122,15101.019999999997,65699.53,-8076.110000000001,10893786.0,-0.3005390167236328
1708474378.7335868,15101.019999999997,65695.57,-8076.110000000001,10892379.0,-0.30019378662109375
1708474378.8675613,15101.019999999997,65691.6,-8076.110000000001,10890527.0,-0.29974937438964844
1708474379.0015357,15101.019999999997,65687.63,-8076.110000000001,10888615.0,-0.29932594299316406
1708474379.1355102,15101.019999999997,65683.65,-8076.110000000001,10886833.0,-0.29886817932128906
1708474379.2694848,15101.019999999997,65679.68,-8076.110000000001,10885147.0,-0.29848289489746094
1708474379.4034593,15101.019999999997,65675.72,-8076.110000000001,10883302.0,-0.29803466796875
1708474379.5374339,15101.019999999997,65671.75,-8080.07,10881211.0,-0.29752540588378906
1708474379.6714084,15101.019999999997,65667.78,-8080.07,10879609.0,-0.2971534729003906
1708474379.805383,15101.019999999997,65663.81,-8080.07,10877672.0,-0.2966728210449219
1708474379.9393575,15101.019999999997,65659.84,-8080.07,10875465.0,-0.2961750030517578
1708474380.0733318,15101.019999999997,65655.86,-8080.07,10873796.0,-0.2957267761230469
1708474380.2073064,15101.019999999997,65651.89,-8084.02,10871640.0,-0.29524803161621094
1708474380.341281,15101.019999999997,65647.92,-8084.02,10869466.0,-0.29474639892578125
1708474380.4752555,15101.019999999997,65643.96,-8084.02,10867413.0,-0.29419898986816406
1708474380.60923,15101.019999999997,65639.99,-8084.02,10865366.0,-0.29375648498535156
1708474380.7432046,15101.019999999997,65639.99,-8084.02,10863288.0,-0.2932300567626953
1708474380.8771791,15101.019999999997,65639.99,-8084.02,10860881.0,-0.29266357421875
1708474381.0111537,15101.019999999997,65636.01,-8084.02,10859044.0,-0.2922077178955078
1708474381.145128,15101.019999999997,65636.01,-8084.02,10856828.0,-0.2916698455810547
1708474381.2791026,15101.019999999997,65632.05,-8084.02,10854507.0,-0.29112815856933594
1708474381.413077,15101.019999999997,65632.05,-8087.98,10852159.0,-0.2905254364013672
1708474381.5470517,15101.019999999997,65628.08,-8087.98,10850074.0,-0.2900428771972656
1708474381.6810262,15101.019999999997,65624.1,-8087.98,10847746.0,-0.28948211669921875
1708474381.8150008,15101.019999999997,65620.14,-8087.98,10845244.0,-0.28885841369628906
1708474381.9489753,15101.019999999997,65616.17,-8087.98,10843076.0,-0.28835487365722656
1708474382.0829499,15101.019999999997,65616.17,-8087.98,10840703.0,-0.2877540588378906
1708474382.2169242,15101.019999999997,65612.2,-8087.98,10838053.0,-0.2871437072753906
1708474382.3508987,15101.019999999997,65608.23,-8087.98,10835986.0,-0.28659820556640625
1708474382.4848733,15101.019999999997,65608.23,-8087.98,10833458.0,-0.28600311279296875
1708474382.6188478,15101.019999999997,65604.25,-8087.98,10830973.0,-0.28540992736816406
1708474382.7528224,15101.019999999997,65600.28,-8087.98,10828628.0,-0.28478431701660156
1708474382.886797,15101.019999999997,65600.28,-8087.98,10826123.0,-0.28421783447265625
1708474383.0207715,15101.019999999997,65596.32,-8087.98,10823587.0,-0.2835845947265625
1708474383.154746,15101.019999999997,65592.35,-8087.98,10820898.0,-0.28292274475097656
1708474383.2887204,15101.019999999997,65592.35,-8087.98,10818658.0,-0.2823753356933594
1708474383.422695,15101.019999999997,65588.38,-8087.98,10816057.0,-0.2817211151123047
1708474383.5566695,15101.019999999997,65584.41,-8087.98,10813447.0,-0.2810955047607422
1708474383.690644,15101.019999999997,65584.41,-8087.98,10811041.0,-0.28046607971191406
1708474383.8246186,15101.019999999997,65580.44,-8087.98,10808343.0,-0.2798328399658203
1708474383.9585931,15101.019999999997,65580.44,-8087.98,10805731.0,-0.2791919708251953
1708474384.0925677,15101.019999999997,65576.46,-8087.98,10802884.0,-0.278472900390625
1708474384.2265422,15101.019999999997,65572.5,-8087.98,10800451.0,-0.27789878845214844
1708474384.3605165,15101.019999999997,65568.53,-8087.98,10797922.0,-0.2772350311279297
1708474384.494491,15101.019999999997,65568.53,-8087.98,10794983.0,-0.2765483856201172
1708474384.6284657,15101.019999999997,65564.56,-8087.98,10792426.0,-0.27588844299316406
1708474384.7624402,15101.019999999997,65564.56,-8087.98,10789765.0,-0.275238037109375
1708474384.8964148,15101.019999999997,65564.56,-8087.98,10787096.0,-0.2745857238769531
1708474385.0303893,15101.019999999997,65560.59,-8087.98,10784306.0,-0.2738513946533203
1708474385.1643639,15101.019999999997,65556.61,-8087.98,10781725.0,-0.27324867248535156
1708474385.2983384,15101.019999999997,65556.61,-8087.98,10778990.0,-0.27254676818847656
1708474385.4323127,15101.019999999997,65552.64,-8087.98,10776041.0,-0.2718162536621094
1708474385.5662873,15101.019999999997,65552.64,-8087.98,10773643.0,-0.2712078094482422
1708474385.7002618,15101.019999999997,65548.67,-8087.98,10770729.0,-0.27048492431640625
1708474385.8342364,15101.019999999997,65548.67,-8087.98,10767864.0,-0.2698020935058594
1708474385.968211,15101.019999999997,65544.71,-8087.98,10765175.0,-0.26908302307128906
1708474386.1021855,15101.019999999997,65544.71,-8087.98,10762337.0,-0.2684135437011719
1708474386.23616,15101.019999999997,65544.71,-8087.98,10759698.0,-0.2677345275878906
1708474386.3701346,15101.019999999997,65544.71,-8087.98,10756765.0,-0.2669792175292969
1708474386.504109,15101.019999999997,65540.74,-8087.98,10754163.0,-0.26635169982910156
1708474386.6380835,15101.019999999997,65536.77,-8087.98,10751314.0,-0.26561927795410156
1708474386.772058,15101.019999999997,65536.77,-8087.98,10748294.0,-0.26490020751953125
1708474386.9060326,15101.019999999997,65532.8,-8087.98,10745809.0,-0.2642230987548828
1708474387.040007,15101.019999999997,65528.83,-8087.98,10742836.0,-0.2635040283203125
1708474387.1739817,15101.019999999997,65524.850000000006,-8087.98,10740007.0,-0.2628040313720703
1708474387.3079562,15101.019999999997,65520.89,-8087.98,10737072.0,-0.26203346252441406
1708474387.4419308,15101.019999999997,65516.92,-8087.98,10734418.0,-0.2613945007324219
1708474387.575905,15101.019999999997,65516.92,-8087.98,10731580.0,-0.2606620788574219
1708474387.7098796,15101.019999999997,65516.92,-8087.98,10728501.0,-0.2599067687988281
1708474387.8438542,15101.019999999997,65512.94,-8087.98,10726082.0,-0.2592620849609375
1708474387.9778287,15101.019999999997,65512.94,-8087.98,10723060.0,-0.258514404296875
1708474388.1118033,15101.019999999997,65508.97,-8087.98,10720086.0,-0.25778961181640625
1708474388.2457778,15101.019999999997,65505.0,-8087.98,10717364.0,-0.25705718994140625
1708474388.3797524,15101.019999999997,65505.0,-8087.98,10714599.0,-0.2563819885253906
1708474388.513727,15101.019999999997,65501.03,-8087.98,10711761.0,-0.2556591033935547
1708474388.6477013,15101.019999999997,65497.07000000001,-8087.98,10708675.0,-0.25487327575683594
1708474388.7816758,15101.019999999997,65497.07000000001,-8087.98,10706023.0,-0.2542247772216797
1708474388.9156504,15101.019999999997,65493.100000000006,-8087.98,10703176.0,-0.25347900390625
1708474389.049625,15101.019999999997,65493.100000000006,-8087.98,10700093.0,-0.2527275085449219
1708474389.1835995,15101.019999999997,65493.100000000006,-8087.98,10697515.0,-0.25203895568847656
1708474389.317574,15101.019999999997,65493.100000000006,-8087.98,10694635.0,-0.25131797790527344
1708474389.4515486,15101.019999999997,65493.100000000006,-8087.98,10691769.0,-0.2506103515625
1708474389.5855231,15101.019999999997,65489.130000000005,-8087.98,10688784.0,-0.24982070922851562
1708474389.7194974,15101.019999999997,65489.130000000005,-8087.98,10686066.0,-0.24916648864746094
1708474389.853472,15101.019999999997,65489.130000000005,-8087.98,10683244.0,-0.24843406677246094
1708474389.9874465,15101.019999999997,65489.130000000005,-8087.98,10680053.0,-0.24764251708984375
1708474390.121421,15101.019999999997,65489.130000000005,-8087.98,10677444.0,-0.2469768524169922
1708474390.2553957,15101.019999999997,65489.130000000005,-8087.98,10674693.0,-0.24625396728515625
1708474390.3893702,15101.019999999997,65489.130000000005,-8087.98,10671676.0,-0.24551963806152344
1708474390.5233448,15101.019999999997,65485.16,-8087.98,10668956.0,-0.24477005004882812
1708474390.6573193,15101.019999999997,65481.19,-8087.98,10666130.0,-0.2440967559814453
1708474390.7912936,15101.019999999997,65481.19,-8091.93,10663281.0,-0.24337196350097656
1708474390.9252682,15101.019999999997,65477.21000000001,-8091.93,10660335.0,-0.24259185791015625
1708474391.0592427,15101.019999999997,65477.21000000001,-8091.93,10657730.0,-0.24195480346679688
1708474391.1932173,15101.019999999997,65477.21000000001,-8091.93,10654968.0,-0.24121665954589844
1708474391.3271918,15101.019999999997,65477.21000000001,-8091.93,10651808.0,-0.24045181274414062
1708474391.4611664,15101.019999999997,65477.21000000001,-8095.880000000001,10649309.0,-0.2397747039794922
1708474391.595141,15101.019999999997,65473.25,-8095.880000000001,10646424.0,-0.23904991149902344
1708474391.7291155,15101.019999999997,65473.25,-8099.84,10643585.0,-0.23834800720214844
1708474391.8630898,15101.019999999997,65469.28,-8099.84,10640803.0,-0.2375946044921875
1708474391.9970644,15101.019999999997,65469.28,-8099.84,10638041.0,-0.23693084716796875
1708474392.131039,15101.019999999997,65469.28,-8099.84,10635322.0,-0.23621368408203125
1708474392.2650135,15101.019999999997,65465.31,-8099.84,10632253.0,-0.23544883728027344
1708474392.398988,15101.019999999997,65465.31,-8099.84,10629746.0,-0.23479080200195312
1708474392.5329626,15101.019999999997,65465.31,-8099.84,10626891.0,-0.23406028747558594
1708474392.666937,15101.019999999997,65465.31,-8099.84,10623906.0,-0.23334312438964844
1708474392.8009117,15101.019999999997,65465.31,-8099.84,10621232.0,-0.23260879516601562
1708474392.934886,15101.019999999997,65465.31,-8099.84,10618536.0,-0.23194313049316406
1708474393.0688605,15101.019999999997,65461.33,-8099.84,10615804.0,-0.23124122619628906
1708474393.202835,15101.019999999997,65461.33,-8103.790000000001,10612871.0,-0.23046493530273438
1708474393.3368096,15101.019999999997,65457.36,-8103.790000000001,10610532.0,-0.22986984252929688
1708474393.4707842,15101.019999999997,65453.39,-8103.790000000001,10607697.0,-0.22913742065429688
1708474393.6047587,15101.019999999997,65449.42,-8103.790000000001,10604556.0,-0.22837257385253906
1708474393.7387333,15101.019999999997,65449.42,-8103.790000000001,10602193.0,-0.2277393341064453
1708474393.8727078,15101.019999999997,65445.46000000001,-8103.790000000001,10599260.0,-0.2270030975341797
1708474394.0066822,15101.019999999997,65445.46000000001,-8107.75,10596383.0,-0.22629928588867188
1708474394.1406567,15101.019999999997,65441.490000000005,-8107.75,10593796.0,-0.22558021545410156
1708474394.2746313,15101.019999999997,65441.490000000005,-8107.75,10591107.0,-0.22493553161621094
1708474394.4086058,15101.019999999997,65437.520000000004,-8107.75,10588397.0,-0.2242279052734375
1708474394.5425804,15101.019999999997,65433.55,-8107.75,10585456.0,-0.22346878051757812
1708474394.676555,15101.019999999997,65433.55,-8107.75,10583197.0,-0.22287368774414062
1708474394.8105295,15101.019999999997,65433.55,-8111.700000000001,10580340.0,-0.22214508056640625
1708474394.944504,15101.019999999997,65433.55,-8111.700000000001,10577491.0,-0.221435546875
1708474395.0784783,15101.019999999997,65429.57000000001,-8111.700000000001,10575079.0,-0.22077178955078125
1708474395.212453,15101.019999999997,65429.57000000001,-8111.700000000001,10572339.0,-0.22010040283203125
1708474395.3464274,15101.019999999997,65429.57000000001,-8115.66,10569611.0,-0.21941566467285156
1708474395.480402,15101.019999999997,65425.600000000006,-8115.66,10566902.0,-0.21867752075195312
1708474395.6143765,15101.019999999997,65425.600000000006,-8119.610000000001,10564354.0,-0.2180652618408203
1708474395.748351,15101.019999999997,65421.64,-8119.610000000001,10561685.0,-0.2173633575439453
1708474395.8823256,15101.019999999997,65421.64,-8119.610000000001,10558773.0,-0.21662330627441406
1708474396.0163002,15101.019999999997,65421.64,-8119.610000000001,10556466.0,-0.21600723266601562
1708474396.1502745,15097.050000000003,65421.64,-8119.610000000001,10553727.0,-0.21532249450683594
1708474396.284249,15097.050000000003,65421.64,-8123.57,10550923.0,-0.21463394165039062
1708474396.4182236,15097.050000000003,65421.64,-8123.57,10548487.0,-0.21395111083984375
1708474396.5521982,15097.050000000003,65417.67,-8123.57,10545812.0,-0.21331214904785156
1708474396.6861727,15097.050000000003,65417.67,-8123.57,10543159.0,-0.2126331329345703
1708474396.8201473,15097.050000000003,65417.67,-8127.52,10540322.0,-0.21189117431640625
1708474396.9541218,15097.050000000003,65417.67,-8127.52,10538018.0,-0.21130943298339844
1708474397.0880964,15093.080000000002,65417.67,-8127.52,10535358.0,-0.2106037139892578
