,x,y,z,temp,temp_error
1708451250.0619252,-14961.900000000001,6002.639999999999,2531.199999999997,11055941.0,-0.3446521759033203
1708451250.1977441,-15927.830000000002,6193.199999999997,2460.010000000002,11048017.0,-0.34314918518066406
1708451250.3335633,-16909.65,6355.970000000001,2380.9100000000035,11040129.0,-0.3415203094482422
1708451250.4693823,-17907.379999999997,6490.949999999997,2293.9000000000015,11032205.0,-0.3397541046142578
1708451250.6052012,-18921.0,6602.110000000001,2202.9300000000003,11025440.0,-0.33826446533203125
1708451250.7410204,-19950.53,6681.510000000002,2108.010000000002,11018567.0,-0.33667755126953125
1708451250.8768394,-20991.98,6737.0899999999965,2013.0899999999965,11011253.0,-0.3349723815917969
1708451251.0126584,-22049.32,6768.8499999999985,1918.1699999999983,11004995.0,-0.33336448669433594
1708451251.1484776,-23122.58,6776.790000000001,1823.25,10998780.0,-0.3319072723388672
1708451251.2842965,-24211.72,6756.940000000002,1732.2900000000009,10992674.0,-0.330352783203125
1708451251.4201155,-25312.8,6717.239999999998,1649.2300000000032,10986508.0,-0.3286914825439453
1708451251.5559347,-26429.78,6657.690000000002,1570.1399999999994,10981643.0,-0.32741737365722656
1708451251.6917536,-27558.68,6574.32,1498.9400000000023,10976219.0,-0.32598876953125
1708451251.8275726,-28699.5,6475.07,1435.6600000000035,10970427.0,-0.32444190979003906
1708451251.9633918,-29852.25,6359.940000000002,1384.25,10966292.0,-0.3231697082519531
1708451252.0992107,-31016.93,6228.93,1340.75,10961708.0,-0.3219623565673828
1708451252.2350297,-32189.55,6082.040000000001,1309.0999999999985,10956584.0,-0.3205757141113281
1708451252.370849,-33370.13,5923.239999999998,1285.3700000000026,10952160.0,-0.3192024230957031
1708451252.5066679,-34554.68,5752.529999999999,1273.510000000002,10948673.0,-0.31823158264160156
1708451252.6424868,-35743.2,5569.9100000000035,1273.510000000002,10944406.0,-0.3170318603515625
1708451252.778306,-36935.7,5375.379999999997,1285.3700000000026,10939855.0,-0.3157234191894531
1708451252.914125,-38128.2,5176.879999999997,1309.0999999999985,10937081.0,-0.3147850036621094
1708451253.049944,-39316.729999999996,4966.470000000001,1344.699999999997,10933739.0,-0.31383514404296875
1708451253.1857631,-40501.28,4748.120000000003,1392.1600000000035,10930043.0,-0.31273841857910156
1708451253.321582,-41673.9,4525.800000000003,1447.5299999999988,10927256.0,-0.3117389678955078
1708451253.457401,-42834.6,4299.510000000002,1514.760000000002,10925177.0,-0.3110847473144531
1708451253.5932202,-43983.38,4069.25,1589.9100000000035,10922288.0,-0.31018638610839844
1708451253.7290392,-45112.28,3835.019999999997,1672.9599999999991,10919422.0,-0.30922698974609375
1708451253.8648582,-46221.3,3596.8199999999997,1767.8899999999994,10918492.0,-0.3087272644042969
1708451254.0006773,-47302.5,3358.6200000000026,1866.760000000002,10916572.0,-0.3080940246582031
1708451254.1364963,-48355.88,3116.449999999997,1973.550000000003,10914382.0,-0.3073272705078125
1708451254.2723153,-49377.45,2874.279999999999,2088.239999999998,10914053.0,-0.3068733215332031
1708451254.4081345,-50363.25,2632.1100000000006,2206.8899999999994,10913638.0,-0.306610107421875
1708451254.5439534,-51309.3,2389.9400000000023,2329.5,10912710.0,-0.30614662170410156
1708451254.6797724,-52215.6,2151.739999999998,2452.0999999999985,10912374.0,-0.30571556091308594
1708451254.8155916,-53078.18,1913.5400000000009,2574.699999999997,10913311.0,-0.30571556091308594
1708451254.9514105,-53897.03,1679.3099999999977,2697.3099999999977,10912847.0,-0.30542564392089844
1708451255.0872295,-54668.18,1449.050000000003,2819.9100000000035,10912655.0,-0.30513572692871094
1708451255.2230487,-55391.630000000005,1226.7300000000032,2938.5699999999997,10913324.0,-0.3050956726074219
1708451255.3588676,-56067.380000000005,1012.3499999999985,3053.260000000002,10912808.0,-0.30492401123046875
1708451255.4946866,-56695.43,801.9400000000023,3164.0,10912040.0,-0.3046607971191406
1708451255.6305058,-57275.78,603.4400000000023,3270.779999999999,10911057.0,-0.30434417724609375
1708451255.7663248,-57812.4,412.8799999999974,3369.6600000000035,10910412.0,-0.30423545837402344
1708451255.9021437,-58305.31,230.26000000000204,3460.6200000000026,10908851.0,-0.3038768768310547
1708451256.037963,-58754.479999999996,59.55000000000291,3547.6399999999994,10906952.0,-0.3034515380859375
1708451256.1737819,-59163.9,-103.22000000000116,3626.730000000003,10905601.0,-0.3031883239746094
1708451256.3096008,-59533.58,-258.0499999999993,3697.9199999999983,10903466.0,-0.3027515411376953
1708451256.44542,-59871.45,-400.97000000000116,3761.199999999997,10901256.0,-0.30230140686035156
1708451256.581239,-60177.53,-531.9799999999996,3820.529999999999,10899062.0,-0.3018150329589844
1708451256.717058,-60451.81,-655.0499999999993,3871.9400000000023,10896856.0,-0.3013896942138672
1708451256.8528771,-60698.25,-770.1800000000003,3919.4100000000035,10894357.0,-0.3008575439453125
1708451256.988696,-60916.880000000005,-873.4000000000015,3962.9100000000035,10891798.0,-0.3002738952636719
1708451257.124515,-61115.630000000005,-968.6800000000003,3998.5,10889678.0,-0.2998313903808594
1708451257.2603343,-61290.53,-1056.0200000000004,4030.1399999999994,10886999.0,-0.29923439025878906
1708451257.3961532,-61449.53,-1135.4199999999983,4057.8300000000017,10884398.0,-0.29866981506347656
1708451257.5319722,-61592.630000000005,-1206.880000000001,4081.5599999999977,10882106.0,-0.2981071472167969
1708451257.6677914,-61715.85,-1274.369999999999,4101.330000000002,10879580.0,-0.29753875732421875
1708451257.8036103,-61827.16,-1333.9199999999983,4121.110000000001,10877169.0,-0.29697418212890625
1708451257.9394293,-61926.53,-1389.5,4136.93,10874789.0,-0.29636383056640625
1708451258.0752485,-62013.979999999996,-1437.1399999999994,4152.75,10872527.0,-0.2958507537841797
1708451258.2110674,-62089.5,-1484.7799999999988,4164.620000000003,10870045.0,-0.29523277282714844
1708451258.3468864,-62157.08,-1524.4799999999996,4176.480000000003,10867493.0,-0.29464149475097656
1708451258.4827056,-62216.7,-1560.2099999999991,4184.389999999999,10865337.0,-0.2940807342529297
1708451258.6185246,-62268.380000000005,-1591.9700000000012,4192.300000000003,10862612.0,-0.29343605041503906
1708451258.7543435,-62316.08,-1619.7599999999984,4196.25,10860407.0,-0.29288673400878906
1708451258.8901627,-62355.83,-1643.5800000000017,4200.209999999999,10857863.0,-0.2922401428222656
1708451259.0259817,-62391.6,-1667.4000000000015,4204.1600000000035,10855437.0,-0.2916698455810547
1708451259.1618006,-62423.4,-1683.2799999999988,4208.120000000003,10853109.0,-0.29107093811035156
1708451259.2976198,-62451.229999999996,-1699.1599999999999,4208.120000000003,10850564.0,-0.2904472351074219
1708451259.4334388,-62475.08,-1715.0400000000009,4208.120000000003,10848334.0,-0.2898845672607422
1708451259.5692577,-62498.93,-1726.9500000000007,4208.120000000003,10845791.0,-0.2892322540283203
1708451259.705077,-62518.81,-1738.8600000000006,4208.120000000003,10843271.0,-0.28864097595214844
1708451259.840896,-62534.7,-1750.7700000000004,4208.120000000003,10840869.0,-0.2880077362060547
1708451259.9767148,-62550.6,-1758.7099999999991,4208.120000000003,10838280.0,-0.28739356994628906
1708451260.112534,-62562.53,-1766.6500000000015,4208.120000000003,10835878.0,-0.28678321838378906
1708451260.248353,-62574.45,-1774.5900000000001,4208.120000000003,10833175.0,-0.2861194610595703
1708451260.384172,-62582.4,-1778.5600000000013,4204.1600000000035,10830870.0,-0.2855415344238281
1708451260.5199912,-62590.36,-1782.5299999999988,4200.209999999999,10828331.0,-0.2848796844482422
1708451260.65581,-62598.31,-1786.5,4196.25,10825606.0,-0.2842521667480469
1708451260.791629,-62606.25,-1790.4700000000012,4192.300000000003,10823228.0,-0.2836132049560547
1708451260.9274483,-62610.229999999996,-1794.4399999999987,4192.300000000003,10820465.0,-0.2829551696777344
1708451261.0632672,-62614.2,-1794.4399999999987,4188.3399999999965,10818065.0,-0.2823486328125
1708451261.1990862,-62618.18,-1798.4099999999999,4184.389999999999,10815271.0,-0.28165435791015625
1708451261.3349054,-62622.16,-1802.380000000001,4184.389999999999,10812742.0,-0.2810401916503906
1708451261.4707243,-62626.130000000005,-1802.380000000001,4180.43,10810017.0,-0.2803459167480469
1708451261.6065433,-62630.1,-1802.380000000001,4176.480000000003,10807282.0,-0.2796897888183594
1708451261.7423625,-62630.1,-1802.380000000001,4172.519999999997,10804796.0,-0.27904510498046875
1708451261.8781815,-62630.1,-1802.380000000001,4168.57,10801993.0,-0.278350830078125
1708451262.0140004,-62630.1,-1802.380000000001,4168.57,10799533.0,-0.27773475646972656
1708451262.1498196,-62630.1,-1802.380000000001,4164.620000000003,10796753.0,-0.2770118713378906
1708451262.2856386,-62630.1,-1802.380000000001,4160.6600000000035,10794059.0,-0.2763843536376953
1708451262.4214575,-62630.1,-1802.380000000001,4160.6600000000035,10791507.0,-0.2757072448730469
1708451262.5572767,-62630.1,-1802.380000000001,4156.699999999997,10788630.0,-0.27500152587890625
1708451262.6930957,-62630.1,-1802.380000000001,4152.75,10786082.0,-0.2743663787841797
1708451262.8289146,-62630.1,-1802.380000000001,4148.800000000003,10783185.0,-0.2736377716064453
1708451262.9647338,-62630.1,-1802.380000000001,4148.800000000003,10780423.0,-0.2729778289794922
1708451263.1005528,-62630.1,-1802.380000000001,4144.8399999999965,10777979.0,-0.27230072021484375
1708451263.2363718,-62630.1,-1802.380000000001,4144.8399999999965,10775028.0,-0.2716102600097656
1708451263.372191,-62626.130000000005,-1802.380000000001,4140.889999999999,10772463.0,-0.27094268798828125
1708451263.50801,-62622.16,-1802.380000000001,4140.889999999999,10769566.0,-0.2702140808105469
1708451263.6438289,-62622.16,-1802.380000000001,4136.93,10766970.0,-0.2695751190185547
1708451263.779648,-62618.18,-1802.380000000001,4136.93,10764074.0,-0.2688312530517578
1708451263.915467,-62614.2,-1802.380000000001,4132.980000000003,10761389.0,-0.2681751251220703
1708451264.051286,-62614.2,-1802.380000000001,4132.980000000003,10758661.0,-0.2674579620361328
1708451264.1871052,-62610.229999999996,-1802.380000000001,4129.019999999997,10755713.0,-0.26674652099609375
1708451264.3229241,-62606.25,-1802.380000000001,4125.07,10753182.0,-0.2660961151123047
1708451264.458743,-62606.25,-1802.380000000001,4121.110000000001,10750346.0,-0.26535797119140625
1708451264.5945623,-62602.28,-1802.380000000001,4121.110000000001,10747627.0,-0.26470184326171875
1708451264.7303813,-62602.28,-1798.4099999999999,4117.1600000000035,10744949.0,-0.2639904022216797
1708451264.8662002,-62602.28,-1798.4099999999999,4117.1600000000035,10742094.0,-0.26329803466796875
1708451265.0020194,-62598.31,-1798.4099999999999,4117.1600000000035,10739378.0,-0.26259422302246094
1708451265.1378384,-62598.31,-1798.4099999999999,4113.199999999997,10736559.0,-0.26188087463378906
1708451265.2736573,-62598.31,-1798.4099999999999,4113.199999999997,10733820.0,-0.2612113952636719
1708451265.4094765,-62594.33,-1798.4099999999999,4109.25,10731005.0,-0.26046180725097656
1708451265.5452955,-62594.33,-1794.4399999999987,4109.25,10728155.0,-0.25978851318359375
1708451265.6811144,-62590.36,-1794.4399999999987,4105.290000000001,10725533.0,-0.2590923309326172
1708451265.8169336,-62590.36,-1794.4399999999987,4101.330000000002,10722533.0,-0.25835609436035156
1708451265.9527526,-62590.36,-1790.4700000000012,4101.330000000002,10720048.0,-0.2577018737792969
1708451266.0885715,-62590.36,-1790.4700000000012,4101.330000000002,10717045.0,-0.2569427490234375
1708451266.2243907,-62586.380000000005,-1790.4700000000012,4097.379999999997,10714296.0,-0.2562694549560547
1708451266.3602097,-62582.4,-1790.4700000000012,4097.379999999997,10711630.0,-0.2555580139160156
1708451266.4960287,-62578.43,-1790.4700000000012,4097.379999999997,10708656.0,-0.2548351287841797
1708451266.6318479,-62578.43,-1790.4700000000012,4093.4199999999983,10706023.0,-0.25415802001953125
1708451266.7676668,-62578.43,-1786.5,4089.470000000001,10703089.0,-0.25340843200683594
1708451266.9034858,-62578.43,-1786.5,4089.470000000001,10700393.0,-0.25275230407714844
1708451267.039305,-62574.45,-1786.5,4085.510000000002,10697722.0,-0.25201988220214844
1708451267.175124,-62574.45,-1786.5,4085.510000000002,10694803.0,-0.25131797790527344
1708451267.310943,-62570.479999999996,-1786.5,4081.5599999999977,10692248.0,-0.2506389617919922
1708451267.446762,-62570.479999999996,-1786.5,4077.5999999999985,10689358.0,-0.2499065399169922
1708451267.582581,-62570.479999999996,-1786.5,4073.6500000000015,10686731.0,-0.24924850463867188
1708451267.7184,-62566.5,-1786.5,4073.6500000000015,10683905.0,-0.24850082397460938
1708451267.8542192,-62562.53,-1782.5299999999988,4073.6500000000015,10681079.0,-0.247833251953125
1708451267.9900382,-62562.53,-1782.5299999999988,4069.6900000000023,10678530.0,-0.24712562561035156
1708451268.125857,-62562.53,-1782.5299999999988,4069.6900000000023,10675567.0,-0.24640655517578125
1708451268.2616763,-62558.56,-1782.5299999999988,4065.739999999998,10673077.0,-0.24574851989746094
1708451268.3974953,-62558.56,-1782.5299999999988,4065.739999999998,10670123.0,-0.24500274658203125
1708451268.5333142,-62554.58,-1782.5299999999988,4065.739999999998,10667429.0,-0.24434280395507812
1708451268.6691334,-62554.58,-1778.5600000000013,4061.779999999999,10664741.0,-0.24361228942871094
1708451268.8049524,-62554.58,-1778.5600000000013,4061.779999999999,10661995.0,-0.24294662475585938
1708451268.9407713,-62554.58,-1778.5600000000013,4057.8300000000017,10659365.0,-0.24225616455078125
1708451269.0765905,-62554.58,-1778.5600000000013,4057.8300000000017,10656542.0,-0.24152565002441406
1708451269.2124095,-62554.58,-1778.5600000000013,4057.8300000000017,10653962.0,-0.24088478088378906
1708451269.3482285,-62554.58,-1778.5600000000013,4057.8300000000017,10651128.0,-0.2401447296142578
1708451269.4840477,-62550.6,-1778.5600000000013,4053.8700000000026,10648349.0,-0.23946762084960938
1708451269.6198666,-62550.6,-1778.5600000000013,4053.8700000000026,10645802.0,-0.23876953125
1708451269.7556856,-62546.630000000005,-1778.5600000000013,4049.9199999999983,10642933.0,-0.23807907104492188
1708451269.8915048,-62546.630000000005,-1778.5600000000013,4049.9199999999983,10640289.0,-0.23740196228027344
1708451270.0273237,-62546.630000000005,-1778.5600000000013,4045.959999999999,10637561.0,-0.2366771697998047
1708451270.1631427,-62546.630000000005,-1778.5600000000013,4045.959999999999,10634791.0,-0.23601722717285156
1708451270.2989619,-62546.630000000005,-1778.5600000000013,4042.010000000002,10632329.0,-0.23532676696777344
1708451270.4347808,-62546.630000000005,-1778.5600000000013,4042.010000000002,10629503.0,-0.2346343994140625
1708451270.5705998,-62546.630000000005,-1778.5600000000013,4038.050000000003,10626968.0,-0.23396682739257812
1708451270.706419,-62546.630000000005,-1778.5600000000013,4034.0999999999985,10624209.0,-0.2332630157470703
1708451270.842238,-62546.630000000005,-1778.5600000000013,4034.0999999999985,10621606.0,-0.2326183319091797
1708451270.978057,-62546.630000000005,-1778.5600000000013,4034.0999999999985,10618862.0,-0.23189163208007812
1708451271.113876,-62542.65,-1778.5600000000013,4030.1399999999994,10616180.0,-0.231231689453125
1708451271.249695,-62542.65,-1778.5600000000013,4030.1399999999994,10613699.0,-0.23056983947753906
1708451271.385514,-62542.65,-1778.5600000000013,4026.1900000000023,10610847.0,-0.22984695434570312
1708451271.5213332,-62542.65,-1778.5600000000013,4026.1900000000023,10608369.0,-0.22922134399414062
1708451271.6571522,-62542.65,-1778.5600000000013,4026.1900000000023,10605608.0,-0.2285003662109375
1708451271.7929711,-62542.65,-1778.5600000000013,4026.1900000000023,10602876.0,-0.22783470153808594
1708451271.9287903,-62542.65,-1778.5600000000013,4026.1900000000023,10600447.0,-0.2271709442138672
1708451272.0646093,-62538.68,-1778.5600000000013,4022.230000000003,10597625.0,-0.22647666931152344
1708451272.2004282,-62534.7,-1778.5600000000013,4018.279999999999,10595178.0,-0.22584915161132812
1708451272.3362474,-62534.7,-1778.5600000000013,4018.279999999999,10592518.0,-0.22513771057128906
1708451272.4720664,-62534.7,-1778.5600000000013,4018.279999999999,10589945.0,-0.224517822265625
1708451272.6078854,-62534.7,-1778.5600000000013,4018.279999999999,10587347.0,-0.22381973266601562
1708451272.7437046,-62530.729999999996,-1778.5600000000013,4014.3199999999997,10584593.0,-0.22313308715820312
1708451272.8795235,-62530.729999999996,-1778.5600000000013,4010.3700000000026,10582320.0,-0.2225341796875
1708451273.0153425,-62526.75,-1778.5600000000013,4010.3700000000026,10579503.0,-0.22180938720703125
1708451273.1511617,-62526.75,-1774.5900000000001,4006.4100000000035,10576998.0,-0.22119522094726562
1708451273.2869806,-62526.75,-1774.5900000000001,4006.4100000000035,10574510.0,-0.22051620483398438
1708451273.4227996,-62526.75,-1774.5900000000001,4002.459999999999,10571833.0,-0.21986007690429688
1708451273.5586188,-62526.75,-1774.5900000000001,4002.459999999999,10569464.0,-0.2192401885986328
1708451273.6944377,-62526.75,-1774.5900000000001,4002.459999999999,10566740.0,-0.21852493286132812
1708451273.8302567,-62526.75,-1774.5900000000001,4002.459999999999,10564178.0,-0.21791458129882812
1708451273.966076,-62526.75,-1774.5900000000001,3998.5,10561730.0,-0.21724700927734375
1708451274.1018949,-62526.75,-1774.5900000000001,3994.550000000003,10559023.0,-0.21657371520996094
1708451274.2377138,-62526.75,-1774.5900000000001,3994.550000000003,10556742.0,-0.2159709930419922
1708451274.373533,-62526.75,-1774.5900000000001,3990.5899999999965,10554111.0,-0.21529388427734375
1708451274.509352,-62526.75,-1778.5600000000013,3990.5899999999965,10551600.0,-0.21467208862304688
1708451274.645171,-62526.75,-1778.5600000000013,3990.5899999999965,10549062.0,-0.2139911651611328
1708451274.7809901,-62526.75,-1778.5600000000013,3986.6399999999994,10546538.0,-0.2133808135986328
1708451274.916809,-62526.75,-1778.5600000000013,3986.6399999999994,10544046.0,-0.2127208709716797
1708451275.052628,-62526.75,-1778.5600000000013,3982.6800000000003,10541407.0,-0.21204757690429688
1708451275.1884472,-62526.75,-1778.5600000000013,3982.6800000000003,10539198.0,-0.21147537231445312
1708451275.3242662,-62526.75,-1778.5600000000013,3978.730000000003,10536520.0,-0.21078109741210938
1708451275.4600852,-62526.75,-1778.5600000000013,3978.730000000003,10534053.0,-0.2101764678955078
1708451275.5959044,-62526.75,-1778.5600000000013,3974.769999999997,10531853.0,-0.20955276489257812
1708451275.7317233,-62526.75,-1778.5600000000013,3970.8199999999997,10529289.0,-0.20891189575195312
1708451275.8675423,-62526.75,-1778.5600000000013,3970.8199999999997,10526914.0,-0.2083148956298828
1708451276.0033615,-62526.75,-1778.5600000000013,3970.8199999999997,10524354.0,-0.20763587951660156
1708451276.1391804,-62526.75,-1778.5600000000013,3966.8700000000026,10521908.0,-0.2070446014404297
1708451276.2749994,-62526.75,-1778.5600000000013,3966.8700000000026,10519537.0,-0.2063922882080078
1708451276.4108186,-62526.75,-1778.5600000000013,3962.9100000000035,10516927.0,-0.20576095581054688
1708451276.5466375,-62526.75,-1778.5600000000013,3962.9100000000035,10514771.0,-0.2051830291748047
1708451276.6824565,-62526.75,-1778.5600000000013,3962.9100000000035,10512166.0,-0.20451927185058594
1708451276.8182757,-62526.75,-1778.5600000000013,3958.949999999997,10509796.0,-0.20393943786621094
1708451276.9540946,-62526.75,-1778.5600000000013,3955.0,10507478.0,-0.2032909393310547
1708451277.0899136,-62526.75,-1778.5600000000013,3955.0,10505018.0,-0.20270347595214844
1708451277.2257328,-62526.75,-1782.5299999999988,3955.0,10502655.0,-0.2020721435546875
1708451277.3615518,-62526.75,-1786.5,3955.0,10500053.0,-0.2014179229736328
1708451277.4973707,-62526.75,-1786.5,3955.0,10497941.0,-0.20087623596191406
1708451277.63319,-62526.75,-1786.5,3955.0,10495418.0,-0.2002105712890625
1708451277.7690089,-62526.75,-1786.5,3955.0,10492950.0,-0.199615478515625
