,x,y,z,temp,temp_error
1708450399.477973,-15574.05,5935.1500000000015,2467.9199999999983,10998181.0,-0.328948974609375
1708450399.6137812,-16539.98,6066.1600000000035,2388.8199999999997,10989422.0,-0.3272895812988281
1708450399.7495894,-17521.8,6169.379999999997,2301.8099999999977,10981590.0,-0.32586097717285156
1708450399.8853977,-18519.53,6248.779999999999,2210.8399999999965,10973783.0,-0.3242778778076172
1708450400.0212061,-19533.15,6304.360000000001,2115.9199999999983,10966000.0,-0.32262611389160156
1708450400.1570144,-20562.68,6336.120000000003,2021.0,10959411.0,-0.32109642028808594
1708450400.2928226,-21612.08,6344.059999999998,1926.0800000000017,10952902.0,-0.3196582794189453
1708450400.4286308,-22677.379999999997,6332.1500000000015,1831.1600000000035,10946187.0,-0.3180961608886719
1708450400.564439,-23758.58,6300.389999999999,1740.199999999997,10939501.0,-0.3164215087890625
1708450400.7002473,-24855.68,6244.809999999998,1653.1900000000023,10934133.0,-0.3151073455810547
1708450400.8360555,-25972.65,6169.379999999997,1574.0899999999965,10928326.0,-0.3136558532714844
1708450400.9718637,-27105.53,6082.040000000001,1502.9000000000015,10922241.0,-0.3121223449707031
1708450401.1076722,-28254.3,5974.8499999999985,1439.6200000000026,10917144.0,-0.31066131591796875
1708450401.2434804,-29418.98,5851.779999999999,1384.25,10912372.0,-0.3094635009765625
1708450401.3792887,-30595.58,5716.800000000003,1336.7900000000009,10906755.0,-0.30801963806152344
1708450401.515097,-31788.08,5569.9100000000035,1301.1900000000023,10901317.0,-0.3065052032470703
1708450401.6509051,-32992.5,5411.110000000001,1277.4599999999991,10897383.0,-0.3054065704345703
1708450401.7867134,-34204.88,5240.4000000000015,1261.6399999999994,10892449.0,-0.3041248321533203
1708450401.9225216,-35425.2,5065.720000000001,1257.6900000000023,10887406.0,-0.302764892578125
1708450402.0583298,-36653.48,4879.129999999997,1265.5999999999985,10883015.0,-0.3014373779296875
1708450402.1941383,-37885.729999999996,4684.5999999999985,1281.4199999999983,10879197.0,-0.3004493713378906
1708450402.3299465,-39117.979999999996,4482.129999999997,1309.0999999999985,10874768.0,-0.2992267608642578
1708450402.4657547,-40346.25,4275.690000000002,1348.6600000000035,10870203.0,-0.29790496826171875
1708450402.601563,-41570.55,4061.3099999999977,1396.1100000000006,10867137.0,-0.29697418212890625
1708450402.7373712,-42786.9,3838.989999999998,1455.4400000000023,10863661.0,-0.2960014343261719
1708450402.8731794,-43987.36,3616.6699999999983,1522.6699999999983,10859892.0,-0.2949066162109375
1708450403.0089877,-45171.9,3386.4100000000035,1597.8199999999997,10856871.0,-0.2938423156738281
1708450403.144796,-46332.6,3152.1800000000003,1684.8300000000017,10855187.0,-0.2932453155517578
1708450403.2806044,-47469.45,2913.980000000003,1779.75,10852656.0,-0.2924060821533203
1708450403.4164126,-48574.5,2675.779999999999,1878.6200000000026,10850290.0,-0.2915382385253906
1708450403.5522208,-49643.78,2433.6100000000006,1985.4100000000035,10849768.0,-0.2910633087158203
1708450403.688029,-50677.28,2191.4400000000023,2096.1500000000015,10848887.0,-0.2906227111816406
1708450403.8238373,-51667.05,1949.2699999999968,2210.8399999999965,10848073.0,-0.2901172637939453
1708450403.9596455,-52609.130000000005,1711.0699999999997,2329.5,10847911.0,-0.2896690368652344
1708450404.0954537,-53503.5,1472.8700000000026,2448.1399999999994,10848778.0,-0.28961181640625
1708450404.231262,-54346.2,1238.6399999999994,2566.800000000003,10848731.0,-0.2893390655517578
1708450404.3670704,-55137.229999999996,1012.3499999999985,2685.4400000000023,10848758.0,-0.28910255432128906
1708450404.5028787,-55872.6,790.0299999999988,2800.1399999999994,10849343.0,-0.2889537811279297
1708450404.638687,-56556.3,575.6500000000015,2910.8799999999974,10849372.0,-0.2888755798339844
1708450404.7744951,-57184.36,373.1800000000003,3017.6600000000035,10848815.0,-0.28863525390625
1708450404.9103034,-57760.729999999996,178.65000000000146,3116.540000000001,10847847.0,-0.2882976531982422
1708450405.0461116,-58285.43,-3.970000000001164,3211.459999999999,10847325.0,-0.2881908416748047
1708450405.1819198,-58762.43,-178.65000000000146,3298.470000000001,10846000.0,-0.2878742218017578
1708450405.3177283,-59195.7,-341.41999999999825,3377.5699999999997,10844139.0,-0.28748130798339844
1708450405.4535365,-59585.25,-492.27999999999884,3452.709999999999,10842811.0,-0.28714942932128906
1708450405.5893447,-59935.05,-631.2299999999996,3519.949999999997,10841112.0,-0.2868480682373047
1708450405.725153,-60249.08,-758.2700000000004,3579.269999999997,10838808.0,-0.2863655090332031
1708450405.8609612,-60531.31,-877.369999999999,3630.6900000000023,10836495.0,-0.28586769104003906
1708450405.9967694,-60781.729999999996,-984.5600000000013,3678.1500000000015,10834699.0,-0.28548622131347656
1708450406.1325777,-61004.33,-1083.8100000000013,3721.6600000000035,10832104.0,-0.2849617004394531
1708450406.268386,-61199.1,-1171.1500000000015,3757.25,10829800.0,-0.2844676971435547
1708450406.4041944,-61374.0,-1254.5200000000004,3788.8899999999994,10827511.0,-0.28391456604003906
1708450406.5400026,-61529.03,-1325.9799999999996,3816.5699999999997,10825350.0,-0.2834663391113281
1708450406.6758108,-61664.18,-1393.4700000000012,3840.300000000003,10822973.0,-0.2828998565673828
1708450406.811619,-61783.43,-1453.0200000000004,3860.0800000000017,10820629.0,-0.28237342834472656
1708450406.9474273,-61890.75,-1508.5999999999985,3879.8499999999985,10818571.0,-0.2818603515625
1708450407.0832355,-61982.18,-1556.2400000000016,3895.6699999999983,10816227.0,-0.2813243865966797
1708450407.2190437,-62061.68,-1599.9099999999999,3907.540000000001,10814193.0,-0.2808208465576172
1708450407.354852,-62133.229999999996,-1635.6399999999994,3919.4100000000035,10811841.0,-0.2802391052246094
1708450407.4906604,-62192.85,-1667.4000000000015,3931.269999999997,10809915.0,-0.2797737121582031
1708450407.6264687,-62248.5,-1699.1599999999999,3939.1800000000003,10807574.0,-0.27918434143066406
1708450407.762277,-62296.2,-1722.9799999999996,3947.0899999999965,10805396.0,-0.2786750793457031
1708450407.898085,-62335.95,-1746.7999999999993,3951.050000000003,10803252.0,-0.27811622619628906
1708450408.0338933,-62371.729999999996,-1766.6500000000015,3955.0,10801041.0,-0.27759361267089844
1708450408.1697016,-62403.53,-1786.5,3958.949999999997,10799072.0,-0.277069091796875
1708450408.3055098,-62427.380000000005,-1802.380000000001,3962.9100000000035,10796680.0,-0.2764911651611328
1708450408.441318,-62451.229999999996,-1814.2900000000009,3962.9100000000035,10794887.0,-0.27600669860839844
1708450408.5771265,-62471.1,-1826.2000000000007,3962.9100000000035,10792311.0,-0.2754077911376953
1708450408.7129347,-62487.0,-1834.1399999999994,3962.9100000000035,10790413.0,-0.2749137878417969
1708450408.848743,-62498.93,-1842.0800000000017,3962.9100000000035,10788151.0,-0.2743186950683594
1708450408.9845512,-62510.85,-1850.0200000000004,3962.9100000000035,10785983.0,-0.2738208770751953
1708450409.1203594,-62518.81,-1857.9599999999991,3962.9100000000035,10783827.0,-0.27324485778808594
1708450409.2561677,-62526.75,-1861.9300000000003,3962.9100000000035,10781591.0,-0.27269935607910156
1708450409.3919759,-62534.7,-1865.9000000000015,3962.9100000000035,10779542.0,-0.2721576690673828
1708450409.527784,-62542.65,-1869.869999999999,3962.9100000000035,10777143.0,-0.2715950012207031
1708450409.6635926,-62546.630000000005,-1873.8400000000001,3958.949999999997,10775068.0,-0.27106285095214844
1708450409.7994008,-62550.6,-1877.8100000000013,3958.949999999997,10772514.0,-0.2704277038574219
1708450409.935209,-62554.58,-1881.7799999999988,3955.0,10770419.0,-0.26992225646972656
1708450410.0710173,-62558.56,-1885.75,3955.0,10768067.0,-0.2693138122558594
1708450410.2068255,-62558.56,-1885.75,3955.0,10765668.0,-0.2687530517578125
1708450410.3426337,-62558.56,-1885.75,3951.050000000003,10763518.0,-0.26816558837890625
1708450410.478442,-62558.56,-1885.75,3947.0899999999965,10761163.0,-0.267608642578125
1708450410.6142504,-62558.56,-1885.75,3943.1399999999994,10758971.0,-0.26704978942871094
1708450410.7500587,-62558.56,-1885.75,3943.1399999999994,10756570.0,-0.2664337158203125
1708450410.8858669,-62558.56,-1885.75,3939.1800000000003,10754487.0,-0.2659149169921875
1708450411.021675,-62558.56,-1885.75,3939.1800000000003,10751906.0,-0.2652740478515625
1708450411.1574833,-62558.56,-1885.75,3935.230000000003,10749696.0,-0.26473236083984375
1708450411.2932916,-62558.56,-1885.75,3931.269999999997,10747298.0,-0.26410484313964844
1708450411.4290998,-62558.56,-1885.75,3927.3199999999997,10744916.0,-0.2635459899902344
1708450411.564908,-62558.56,-1885.75,3927.3199999999997,10742586.0,-0.2629375457763672
1708450411.7007165,-62554.58,-1885.75,3923.3600000000006,10740074.0,-0.2623310089111328
1708450411.8365247,-62550.6,-1885.75,3923.3600000000006,10737885.0,-0.2617664337158203
1708450411.972333,-62550.6,-1885.75,3919.4100000000035,10735333.0,-0.2611236572265625
1708450412.1081412,-62546.630000000005,-1885.75,3915.449999999997,10733115.0,-0.2605762481689453
1708450412.2439494,-62546.630000000005,-1885.75,3915.449999999997,10730456.0,-0.2599048614501953
1708450412.3797576,-62542.65,-1885.75,3911.5,10728145.0,-0.2593517303466797
1708450412.5155659,-62538.68,-1885.75,3907.540000000001,10725903.0,-0.25873756408691406
1708450412.651374,-62534.7,-1885.75,3907.540000000001,10723216.0,-0.25811195373535156
1708450412.7871826,-62530.729999999996,-1885.75,3903.5800000000017,10721164.0,-0.2575492858886719
1708450412.9229908,-62526.75,-1881.7799999999988,3903.5800000000017,10718565.0,-0.2569103240966797
1708450413.058799,-62526.75,-1877.8100000000013,3899.6299999999974,10716285.0,-0.25633811950683594
1708450413.1946073,-62526.75,-1877.8100000000013,3899.6299999999974,10713676.0,-0.2556724548339844
1708450413.3304155,-62522.78,-1877.8100000000013,3895.6699999999983,10711363.0,-0.25511741638183594
1708450413.4662237,-62518.81,-1877.8100000000013,3895.6699999999983,10708822.0,-0.25444793701171875
1708450413.602032,-62514.83,-1877.8100000000013,3891.720000000001,10706399.0,-0.2538642883300781
1708450413.7378402,-62514.83,-1873.8400000000001,3891.720000000001,10704070.0,-0.25324249267578125
1708450413.8736486,-62510.85,-1873.8400000000001,3887.760000000002,10701445.0,-0.25262451171875
1708450414.0094569,-62510.85,-1873.8400000000001,3887.760000000002,10699149.0,-0.25201988220214844
1708450414.145265,-62510.85,-1869.869999999999,3887.760000000002,10696399.0,-0.2513446807861328
1708450414.2810733,-62510.85,-1869.869999999999,3883.8099999999977,10694243.0,-0.25078773498535156
1708450414.4168816,-62506.880000000005,-1869.869999999999,3879.8499999999985,10691712.0,-0.25012779235839844
1708450414.5526898,-62502.9,-1869.869999999999,3875.9000000000015,10689295.0,-0.24954795837402344
1708450414.688498,-62498.93,-1869.869999999999,3875.9000000000015,10686903.0,-0.24889373779296875
1708450414.8243062,-62494.95,-1869.869999999999,3875.9000000000015,10684420.0,-0.2483081817626953
1708450414.9601147,-62490.979999999996,-1869.869999999999,3871.9400000000023,10682103.0,-0.24769020080566406
1708450415.095923,-62487.0,-1869.869999999999,3871.9400000000023,10679343.0,-0.247039794921875
1708450415.2317312,-62487.0,-1869.869999999999,3871.9400000000023,10677047.0,-0.246429443359375
1708450415.3675394,-62487.0,-1869.869999999999,3871.9400000000023,10674500.0,-0.24578285217285156
1708450415.5033476,-62483.03,-1869.869999999999,3871.9400000000023,10672217.0,-0.24521255493164062
1708450415.6391559,-62479.05,-1869.869999999999,3867.989999999998,10669717.0,-0.24454498291015625
1708450415.774964,-62475.08,-1869.869999999999,3864.029999999999,10667327.0,-0.24396896362304688
1708450415.9107726,-62475.08,-1869.869999999999,3864.029999999999,10665043.0,-0.24334716796875
1708450416.0465808,-62471.1,-1869.869999999999,3864.029999999999,10662379.0,-0.2427215576171875
1708450416.182389,-62471.1,-1869.869999999999,3860.0800000000017,10660151.0,-0.2421092987060547
1708450416.3181973,-62467.130000000005,-1869.869999999999,3856.1200000000026,10657560.0,-0.2414684295654297
1708450416.4540055,-62467.130000000005,-1869.869999999999,3856.1200000000026,10655305.0,-0.2408924102783203
1708450416.5898137,-62467.130000000005,-1869.869999999999,3856.1200000000026,10652557.0,-0.2402057647705078
1708450416.725622,-62463.16,-1869.869999999999,3852.1699999999983,10650307.0,-0.2396411895751953
1708450416.8614302,-62463.16,-1869.869999999999,3852.1699999999983,10647796.0,-0.23897552490234375
1708450416.9972386,-62459.18,-1869.869999999999,3848.209999999999,10645388.0,-0.23839569091796875
1708450417.1330469,-62459.18,-1869.869999999999,3844.260000000002,10643062.0,-0.23775291442871094
1708450417.268855,-62459.18,-1869.869999999999,3840.300000000003,10640522.0,-0.23714828491210938
1708450417.4046633,-62459.18,-1869.869999999999,3840.300000000003,10638306.0,-0.23655319213867188
1708450417.5404716,-62455.2,-1869.869999999999,3840.300000000003,10635721.0,-0.2359027862548828
1708450417.6762798,-62455.2,-1869.869999999999,3840.300000000003,10633452.0,-0.23533248901367188
1708450417.812088,-62455.2,-1869.869999999999,3836.3499999999985,10630859.0,-0.2346668243408203
1708450417.9478962,-62455.2,-1869.869999999999,3832.3899999999994,10628633.0,-0.23410415649414062
1708450418.0837047,-62451.229999999996,-1869.869999999999,3832.3899999999994,10626031.0,-0.2334270477294922
1708450418.219513,-62451.229999999996,-1869.869999999999,3832.3899999999994,10623636.0,-0.23285293579101562
1708450418.3553212,-62451.229999999996,-1869.869999999999,3828.4400000000023,10621406.0,-0.2322368621826172
1708450418.4911294,-62451.229999999996,-1869.869999999999,3828.4400000000023,10618800.0,-0.23160171508789062
1708450418.6269376,-62451.229999999996,-1869.869999999999,3824.480000000003,10616623.0,-0.23102760314941406
1708450418.7627459,-62451.229999999996,-1869.869999999999,3824.480000000003,10614018.0,-0.230377197265625
1708450418.898554,-62451.229999999996,-1869.869999999999,3820.529999999999,10611837.0,-0.2298145294189453
1708450419.0343623,-62451.229999999996,-1869.869999999999,3820.529999999999,10609336.0,-0.22915077209472656
1708450419.1701708,-62451.229999999996,-1869.869999999999,3816.5699999999997,10607091.0,-0.2286052703857422
1708450419.305979,-62451.229999999996,-1869.869999999999,3816.5699999999997,10604635.0,-0.22795867919921875
1708450419.4417872,-62451.229999999996,-1869.869999999999,3812.6200000000026,10602195.0,-0.22736167907714844
1708450419.5775955,-62451.229999999996,-1869.869999999999,3808.6600000000035,10600039.0,-0.22676849365234375
1708450419.7134037,-62451.229999999996,-1869.869999999999,3804.709999999999,10597537.0,-0.22615623474121094
1708450419.849212,-62451.229999999996,-1869.869999999999,3804.709999999999,10595319.0,-0.2255725860595703
1708450419.9850202,-62451.229999999996,-1869.869999999999,3804.709999999999,10592685.0,-0.22492027282714844
1708450420.1208284,-62451.229999999996,-1869.869999999999,3800.75,10590488.0,-0.2243671417236328
1708450420.2566369,-62451.229999999996,-1869.869999999999,3800.75,10588104.0,-0.22372817993164062
1708450420.392445,-62451.229999999996,-1869.869999999999,3800.75,10585714.0,-0.22315406799316406
1708450420.5282533,-62451.229999999996,-1869.869999999999,3796.800000000003,10583419.0,-0.22252655029296875
1708450420.6640615,-62451.229999999996,-1869.869999999999,3792.8399999999965,10581015.0,-0.22194290161132812
1708450420.7998698,-62451.229999999996,-1869.869999999999,3792.8399999999965,10578920.0,-0.2213573455810547
1708450420.935678,-62451.229999999996,-1869.869999999999,3792.8399999999965,10576226.0,-0.22072601318359375
1708450421.0714862,-62451.229999999996,-1869.869999999999,3792.8399999999965,10574097.0,-0.2201671600341797
1708450421.2072947,-62451.229999999996,-1869.869999999999,3788.8899999999994,10571705.0,-0.21953773498535156
1708450421.343103,-62451.229999999996,-1869.869999999999,3784.9300000000003,10569613.0,-0.21900367736816406
1708450421.4789112,-62447.25,-1869.869999999999,3784.9300000000003,10567186.0,-0.21836280822753906
1708450421.6147194,-62447.25,-1869.869999999999,3780.980000000003,10565008.0,-0.2178211212158203
1708450421.7505276,-62447.25,-1869.869999999999,3777.019999999997,10562681.0,-0.21720123291015625
1708450421.8863358,-62447.25,-1869.869999999999,3777.019999999997,10560310.0,-0.21662330627441406
1708450422.022144,-62447.25,-1869.869999999999,3777.019999999997,10558183.0,-0.21605873107910156
1708450422.1579523,-62447.25,-1869.869999999999,3777.019999999997,10555656.0,-0.21543312072753906
1708450422.2937608,-62447.25,-1869.869999999999,3773.0699999999997,10553614.0,-0.2149028778076172
1708450422.429569,-62443.28,-1869.869999999999,3773.0699999999997,10551166.0,-0.214263916015625
1708450422.5653772,-62443.28,-1869.869999999999,3773.0699999999997,10548985.0,-0.2137279510498047
1708450422.7011855,-62443.28,-1869.869999999999,3769.1200000000026,10546737.0,-0.2131175994873047
1708450422.8369937,-62443.28,-1869.869999999999,3765.1600000000035,10544473.0,-0.21256065368652344
1708450422.972802,-62443.28,-1869.869999999999,3765.1600000000035,10542303.0,-0.21198654174804688
1708450423.1086102,-62443.28,-1869.869999999999,3765.1600000000035,10539909.0,-0.211395263671875
1708450423.2444184,-62439.31,-1869.869999999999,3761.199999999997,10537872.0,-0.21085357666015625
1708450423.3802269,-62439.31,-1869.869999999999,3761.199999999997,10535476.0,-0.2102336883544922
1708450423.516035,-62439.31,-1869.869999999999,3761.199999999997,10533422.0,-0.20972251892089844
1708450423.6518433,-62439.31,-1869.869999999999,3757.25,10531072.0,-0.20910072326660156
1708450423.7876515,-62439.31,-1869.869999999999,3757.25,10528738.0,-0.20854568481445312
1708450423.9234598,-62439.31,-1869.869999999999,3757.25,10526743.0,-0.2079753875732422
1708450424.059268,-62439.31,-1869.869999999999,3757.25,10524404.0,-0.20741844177246094
1708450424.1950762,-62439.31,-1869.869999999999,3753.300000000003,10522302.0,-0.2068614959716797
1708450424.3308845,-62439.31,-1869.869999999999,3753.300000000003,10519852.0,-0.20624923706054688
1708450424.466693,-62439.31,-1869.869999999999,3749.3399999999965,10517974.0,-0.20573997497558594
1708450424.6025012,-62439.31,-1869.869999999999,3749.3399999999965,10515469.0,-0.2051258087158203
1708450424.7383094,-62439.31,-1869.869999999999,3749.3399999999965,10513448.0,-0.20461273193359375
1708450424.8741176,-62439.31,-1869.869999999999,3745.3899999999994,10511233.0,-0.20400619506835938
1708450425.0099258,-62439.31,-1869.869999999999,3745.3899999999994,10509110.0,-0.2034931182861328
1708450425.145734,-62439.31,-1869.869999999999,3741.4300000000003,10507084.0,-0.20293426513671875
1708450425.2815423,-62439.31,-1873.8400000000001,3741.4300000000003,10504664.0,-0.20235061645507812
1708450425.4173505,-62439.31,-1873.8400000000001,3741.4300000000003,10502776.0,-0.2018299102783203
1708450425.553159,-62439.31,-1873.8400000000001,3737.480000000003,10500522.0,-0.20126724243164062
1708450425.6889672,-62439.31,-1873.8400000000001,3737.480000000003,10498461.0,-0.20074844360351562
1708450425.8247755,-62439.31,-1873.8400000000001,3733.519999999997,10496275.0,-0.20015335083007812
1708450425.9605837,-62439.31,-1877.8100000000013,3733.519999999997,10494305.0,-0.19966697692871094
1708450426.096392,-62439.31,-1877.8100000000013,3733.519999999997,10492142.0,-0.19908905029296875
1708450426.2322001,-62435.33,-1877.8100000000013,3729.5699999999997,10489864.0,-0.19854736328125
1708450426.3680084,-62435.33,-1877.8100000000013,3729.5699999999997,10487946.0,-0.1980133056640625
1708450426.5038168,-62435.33,-1877.8100000000013,3725.6100000000006,10485680.0,-0.1974639892578125
1708450426.639625,-62435.33,-1877.8100000000013,3725.6100000000006,10483787.0,-0.1969585418701172
1708450426.7754333,-62435.33,-1877.8100000000013,3725.6100000000006,10481617.0,-0.1963787078857422
1708450426.9112415,-62435.33,-1877.8100000000013,3725.6100000000006,10479572.0,-0.19588661193847656
