,x,y,z,temp,temp_error
1708449941.7317636,11714.32,-8741.939999999999,1277.4599999999991,10707432.0,-0.2496471405029297
1708449941.865572,12465.599999999999,-8801.490000000002,1293.2799999999988,10709291.0,-0.2500419616699219
1708449941.99938,13228.800000000003,-8841.189999999999,1309.0999999999985,10712335.0,-0.25076866149902344
1708449942.1331885,14007.900000000001,-8865.009999999998,1320.9700000000012,10714675.0,-0.2513885498046875
1708449942.2669969,14798.919999999998,-8880.89,1332.8300000000017,10716699.0,-0.2518787384033203
1708449942.400805,15605.849999999999,-8884.86,1344.699999999997,10719126.0,-0.2523326873779297
1708449942.5346134,16424.699999999997,-8872.95,1356.5699999999997,10722715.0,-0.2531909942626953
1708449942.6684217,17259.449999999997,-8853.099999999999,1364.4800000000032,10725417.0,-0.2538776397705078
1708449942.8022301,18106.120000000003,-8825.310000000001,1372.3899999999994,10727503.0,-0.25436973571777344
1708449942.9360383,18968.699999999997,-8789.580000000002,1380.300000000003,10730325.0,-0.25493431091308594
1708449943.0698466,19847.18,-8745.91,1388.199999999997,10734179.0,-0.2558403015136719
1708449943.203655,20737.58,-8694.3,1400.0699999999997,10736912.0,-0.25657081604003906
1708449943.3374631,21643.870000000003,-8634.75,1411.9300000000003,10738913.0,-0.25707054138183594
1708449943.4712715,22566.08,-8571.23,1423.800000000003,10742003.0,-0.2577018737792969
1708449943.60508,23504.18,-8499.77,1435.6600000000035,10745619.0,-0.2586383819580078
1708449943.738888,24458.18,-8420.369999999999,1447.5299999999988,10748066.0,-0.2593059539794922
1708449943.8726964,25424.1,-8340.970000000001,1459.3899999999994,10750074.0,-0.25982093811035156
1708449944.0065048,26405.92,-8253.630000000001,1475.2099999999991,10753025.0,-0.2604503631591797
1708449944.140313,27403.65,-8158.3499999999985,1491.0299999999988,10756611.0,-0.2613868713378906
1708449944.2741213,28413.300000000003,-8055.130000000001,1506.8499999999985,10758726.0,-0.26200294494628906
1708449944.4079297,29438.85,-7951.91,1526.6299999999974,10760502.0,-0.2624530792236328
1708449944.5417378,30476.33,-7840.75,1546.4100000000035,10763694.0,-0.2631797790527344
1708449944.6755462,31525.730000000003,-7717.68,1566.1800000000003,10766601.0,-0.2640266418457031
1708449944.8093545,32583.08,-7590.639999999999,1589.9100000000035,10768292.0,-0.2645606994628906
1708449944.943163,33648.380000000005,-7459.630000000001,1613.6399999999994,10769779.0,-0.2649517059326172
1708449945.076971,34721.630000000005,-7316.709999999999,1641.3199999999997,10772599.0,-0.2656116485595703
1708449945.2107794,35798.850000000006,-7165.8499999999985,1669.010000000002,10775217.0,-0.2664031982421875
1708449945.3445878,36880.05,-7007.049999999999,1700.6500000000015,10776499.0,-0.2668342590332031
1708449945.478396,37961.25,-6840.310000000001,1732.2900000000009,10777753.0,-0.2671527862548828
1708449945.6122043,39038.479999999996,-6665.630000000001,1767.8899999999994,10780434.0,-0.26784515380859375
1708449945.7460127,40107.75,-6479.040000000001,1803.4800000000032,10782411.0,-0.2684898376464844
1708449945.8798208,41165.100000000006,-6284.509999999998,1843.0299999999988,10783632.0,-0.2689094543457031
1708449946.0136292,42210.53,-6082.040000000001,1886.5299999999988,10784367.0,-0.2691001892089844
1708449946.1474376,43236.08,-5867.66,1930.0400000000009,10787042.0,-0.26978111267089844
1708449946.2812457,44237.78,-5645.34,1977.5,10788553.0,-0.27030181884765625
1708449946.415054,45215.630000000005,-5419.049999999999,2024.9599999999991,10789276.0,-0.2705821990966797
1708449946.5488625,46161.67999999999,-5184.82,2076.3700000000026,10790619.0,-0.2708606719970703
1708449946.6826706,47071.96000000001,-4942.6500000000015,2127.790000000001,10793182.0,-0.2715339660644531
1708449946.816479,47942.479999999996,-4696.509999999998,2183.1600000000035,10794654.0,-0.27201080322265625
1708449946.9502873,48773.25,-4450.369999999999,2238.529999999999,10795719.0,-0.2723236083984375
1708449947.0840957,49556.33,-4204.23,2293.9000000000015,10797292.0,-0.2726249694824219
1708449947.2179039,50291.71000000001,-3962.0600000000013,2349.269999999997,10800011.0,-0.2733116149902344
1708449947.3517122,50979.380000000005,-3719.8899999999994,2404.6399999999994,10801450.0,-0.2737560272216797
1708449947.4855206,51615.380000000005,-3485.66,2460.010000000002,10802319.0,-0.274017333984375
1708449947.6193287,52199.71000000001,-3255.4000000000015,2515.3799999999974,10803986.0,-0.2743549346923828
1708449947.753137,52732.36,-3037.0499999999993,2570.75,10806130.0,-0.27495384216308594
1708449947.8869455,53217.3,-2826.6399999999994,2622.1600000000035,10807111.0,-0.27532958984375
1708449948.0207536,53654.56,-2628.1399999999994,2673.5800000000017,10807346.0,-0.2754974365234375
1708449948.154562,54044.100000000006,-2441.5499999999993,2721.040000000001,10808265.0,-0.2757453918457031
1708449948.2883704,54393.91,-2266.869999999999,2764.550000000003,10809201.0,-0.27614784240722656
1708449948.4221785,54703.96000000001,-2108.0699999999997,2804.0899999999965,10808685.0,-0.2762413024902344
1708449948.555987,54978.229999999996,-1965.1500000000015,2839.6900000000023,10807684.0,-0.2761878967285156
1708449948.6897953,55220.71000000001,-1834.1399999999994,2875.279999999999,10807037.0,-0.2761554718017578
1708449948.8236034,55431.380000000005,-1711.0699999999997,2906.9199999999983,10806165.0,-0.27623939514160156
1708449948.9574118,55618.21000000001,-1599.9099999999999,2934.6100000000006,10804637.0,-0.27608489990234375
1708449949.0912201,55781.17999999999,-1504.630000000001,2958.3399999999965,10802581.0,-0.2758007049560547
1708449949.2250285,55924.28,-1417.2900000000009,2978.1200000000026,10801083.0,-0.27556610107421875
1708449949.3588367,56047.5,-1337.8899999999994,2993.9300000000003,10799522.0,-0.2754364013671875
1708449949.492645,56154.83,-1270.4000000000015,3009.75,10797271.0,-0.2750740051269531
1708449949.6264534,56246.25,-1206.880000000001,3021.6200000000026,10794526.0,-0.27460289001464844
1708449949.7602615,56325.75,-1155.2700000000004,3033.480000000003,10792746.0,-0.27422332763671875
1708449949.89407,56393.33,-1107.630000000001,3045.3499999999985,10790546.0,-0.27392005920410156
1708449950.0278783,56452.96000000001,-1067.9300000000003,3053.260000000002,10787921.0,-0.2734203338623047
1708449950.1616864,56504.630000000005,-1032.2000000000007,3061.1699999999983,10784873.0,-0.27281951904296875
1708449950.2954948,56548.36,-1000.4399999999987,3065.1200000000026,10782834.0,-0.2723541259765625
1708449950.4293032,56584.130000000005,-972.6500000000015,3069.0800000000017,10780484.0,-0.2719306945800781
1708449950.5631113,56615.92,-948.8300000000017,3073.029999999999,10777799.0,-0.2713623046875
1708449950.6969197,56643.75,-928.9799999999996,3076.989999999998,10774696.0,-0.2706871032714844
1708449950.830728,56667.600000000006,-913.0999999999985,3080.9400000000023,10772699.0,-0.2701892852783203
1708449950.9645362,56687.490000000005,-901.1899999999987,3084.9000000000015,10770173.0,-0.269683837890625
1708449951.0983446,56703.380000000005,-889.2799999999988,3084.9000000000015,10767420.0,-0.2690582275390625
1708449951.232153,56715.3,-877.369999999999,3084.9000000000015,10764346.0,-0.26834869384765625
1708449951.3659613,56727.229999999996,-869.4300000000003,3084.9000000000015,10762346.0,-0.267822265625
1708449951.4997694,56735.17999999999,-861.4900000000016,3084.9000000000015,10759710.0,-0.26727294921875
1708449951.6335778,56743.130000000005,-853.5499999999993,3084.9000000000015,10756932.0,-0.2666149139404297
1708449951.7673862,56751.08,-849.5800000000017,3084.9000000000015,10753930.0,-0.265869140625
1708449951.9011943,56755.05,-841.6399999999994,3084.9000000000015,10751785.0,-0.2653217315673828
1708449952.0350027,56759.03,-837.6699999999983,3084.9000000000015,10749240.0,-0.2647533416748047
1708449952.168811,56763.0,-837.6699999999983,3084.9000000000015,10746294.0,-0.2640552520751953
1708449952.3026192,56766.990000000005,-833.7000000000007,3084.9000000000015,10743293.0,-0.26329612731933594
1708449952.4364276,56770.96000000001,-829.7299999999996,3084.9000000000015,10741242.0,-0.2627429962158203
1708449952.570236,56770.96000000001,-829.7299999999996,3084.9000000000015,10738629.0,-0.2621612548828125
1708449952.704044,56770.96000000001,-829.7299999999996,3084.9000000000015,10735740.0,-0.2614612579345703
1708449952.8378525,56770.96000000001,-829.7299999999996,3084.9000000000015,10732894.0,-0.26070404052734375
1708449952.9716609,56770.96000000001,-829.7299999999996,3088.8499999999985,10730737.0,-0.2601642608642578
1708449953.105469,56770.96000000001,-829.7299999999996,3088.8499999999985,10727969.0,-0.2595176696777344
1708449953.2392774,56770.96000000001,-829.7299999999996,3088.8499999999985,10725068.0,-0.2588024139404297
1708449953.3730857,56770.96000000001,-829.7299999999996,3088.8499999999985,10722173.0,-0.2580394744873047
1708449953.506894,56770.96000000001,-829.7299999999996,3092.8099999999977,10719995.0,-0.2575092315673828
1708449953.6407022,56770.96000000001,-829.7299999999996,3092.8099999999977,10717335.0,-0.2568492889404297
1708449953.7745106,56770.96000000001,-829.7299999999996,3092.8099999999977,10714337.0,-0.2561302185058594
1708449953.908319,56770.96000000001,-829.7299999999996,3092.8099999999977,10711604.0,-0.2553749084472656
1708449954.0421271,56770.96000000001,-829.7299999999996,3092.8099999999977,10709563.0,-0.2548713684082031
1708449954.1759355,56770.96000000001,-829.7299999999996,3092.8099999999977,10706828.0,-0.25418663024902344
1708449954.309744,56770.96000000001,-829.7299999999996,3092.8099999999977,10703862.0,-0.25347900390625
1708449954.443552,56770.96000000001,-829.7299999999996,3092.8099999999977,10701173.0,-0.25272178649902344
1708449954.5773604,56770.96000000001,-829.7299999999996,3096.760000000002,10698933.0,-0.25218772888183594
1708449954.7111688,56770.96000000001,-829.7299999999996,3096.760000000002,10696148.0,-0.2514972686767578
1708449954.844977,56770.96000000001,-833.7000000000007,3096.760000000002,10693120.0,-0.25075340270996094
1708449954.9787853,56770.96000000001,-833.7000000000007,3096.760000000002,10690478.0,-0.2500152587890625
1708449955.1125937,56770.96000000001,-837.6699999999983,3096.760000000002,10688326.0,-0.24950599670410156
1708449955.2464018,56770.96000000001,-837.6699999999983,3096.760000000002,10685514.0,-0.24880599975585938
1708449955.3802102,56770.96000000001,-837.6699999999983,3096.760000000002,10682423.0,-0.24805831909179688
1708449955.5140185,56770.96000000001,-837.6699999999983,3096.760000000002,10680094.0,-0.24736595153808594
1708449955.647827,56770.96000000001,-837.6699999999983,3096.760000000002,10677765.0,-0.2468280792236328
1708449955.781635,56770.96000000001,-837.6699999999983,3096.760000000002,10674931.0,-0.24611854553222656
1708449955.9154434,56770.96000000001,-841.6399999999994,3096.760000000002,10672002.0,-0.24537086486816406
1708449956.0492518,56770.96000000001,-841.6399999999994,3096.760000000002,10669550.0,-0.24468421936035156
1708449956.18306,56770.96000000001,-841.6399999999994,3096.760000000002,10667264.0,-0.24414825439453125
1708449956.3168683,56770.96000000001,-841.6399999999994,3096.760000000002,10664541.0,-0.24345779418945312
1708449956.4506767,56770.96000000001,-845.6100000000006,3096.760000000002,10661514.0,-0.24270057678222656
1708449956.5844848,56770.96000000001,-845.6100000000006,3096.760000000002,10659136.0,-0.2420215606689453
1708449956.7182932,56770.96000000001,-845.6100000000006,3096.760000000002,10656865.0,-0.24149703979492188
1708449956.8521016,56770.96000000001,-845.6100000000006,3096.760000000002,10654028.0,-0.24078750610351562
1708449956.9859097,56770.96000000001,-845.6100000000006,3096.760000000002,10651000.0,-0.2400379180908203
1708449957.119718,56770.96000000001,-845.6100000000006,3096.760000000002,10648743.0,-0.23936080932617188
1708449957.2535264,56770.96000000001,-845.6100000000006,3096.760000000002,10646470.0,-0.2388439178466797
1708449957.3873346,56770.96000000001,-845.6100000000006,3096.760000000002,10643595.0,-0.23812484741210938
1708449957.521143,56770.96000000001,-845.6100000000006,3096.760000000002,10640491.0,-0.23734283447265625
1708449957.6549513,56770.96000000001,-845.6100000000006,3096.760000000002,10638492.0,-0.2367534637451172
1708449957.7887597,56770.96000000001,-849.5800000000017,3096.760000000002,10636013.0,-0.23618316650390625
1708449957.9225678,56770.96000000001,-849.5800000000017,3096.760000000002,10633234.0,-0.23548316955566406
1708449958.0563762,56770.96000000001,-849.5800000000017,3096.760000000002,10630285.0,-0.2347259521484375
1708449958.1901846,56770.96000000001,-849.5800000000017,3096.760000000002,10628237.0,-0.2341480255126953
1708449958.3239927,56770.96000000001,-849.5800000000017,3096.760000000002,10625777.0,-0.23356246948242188
1708449958.457801,56770.96000000001,-849.5800000000017,3096.760000000002,10622985.0,-0.23286056518554688
1708449958.5916095,56770.96000000001,-849.5800000000017,3096.760000000002,10619946.0,-0.23207473754882812
1708449958.7254176,56766.990000000005,-849.5800000000017,3096.760000000002,10618010.0,-0.23154067993164062
1708449958.859226,56766.990000000005,-853.5499999999993,3096.760000000002,10615358.0,-0.23092079162597656
1708449958.9930344,56766.990000000005,-853.5499999999993,3096.760000000002,10612597.0,-0.23022079467773438
1708449959.1268425,56766.990000000005,-853.5499999999993,3096.760000000002,10609776.0,-0.22945594787597656
1708449959.2606509,56766.990000000005,-853.5499999999993,3096.760000000002,10607854.0,-0.22894668579101562
1708449959.3944592,56766.990000000005,-857.5200000000004,3096.760000000002,10605250.0,-0.2283172607421875
1708449959.5282674,56766.990000000005,-857.5200000000004,3096.760000000002,10602407.0,-0.22762489318847656
1708449959.6620758,56766.990000000005,-857.5200000000004,3096.760000000002,10599690.0,-0.22686767578125
1708449959.7958841,56766.990000000005,-857.5200000000004,3096.760000000002,10597796.0,-0.2263660430908203
1708449959.9296925,56766.990000000005,-857.5200000000004,3096.760000000002,10595258.0,-0.2257518768310547
1708449960.0635006,56763.0,-861.4900000000016,3096.760000000002,10592290.0,-0.22503089904785156
1708449960.197309,56763.0,-861.4900000000016,3096.760000000002,10589597.0,-0.22427940368652344
1708449960.3311174,56763.0,-861.4900000000016,3092.8099999999977,10587673.0,-0.2237987518310547
1708449960.4649255,56763.0,-861.4900000000016,3092.8099999999977,10585092.0,-0.22315406799316406
1708449960.598734,56763.0,-861.4900000000016,3092.8099999999977,10582222.0,-0.22244644165039062
1708449960.7325423,56763.0,-861.4900000000016,3092.8099999999977,10579792.0,-0.2217388153076172
1708449960.8663504,56759.03,-865.4599999999991,3092.8099999999977,10577722.0,-0.22125625610351562
1708449961.0001588,56759.03,-865.4599999999991,3092.8099999999977,10575002.0,-0.22058486938476562
1708449961.1339672,56759.03,-865.4599999999991,3088.8499999999985,10572229.0,-0.2198772430419922
1708449961.2677753,56755.05,-865.4599999999991,3088.8499999999985,10570001.0,-0.21922683715820312
1708449961.4015837,56755.05,-865.4599999999991,3084.9000000000015,10567910.0,-0.21874046325683594
1708449961.535392,56755.05,-865.4599999999991,3084.9000000000015,10565438.0,-0.2180938720703125
1708449961.6692004,56755.05,-865.4599999999991,3084.9000000000015,10562358.0,-0.2173480987548828
1708449961.8030086,56755.05,-865.4599999999991,3084.9000000000015,10560221.0,-0.21673011779785156
1708449961.936817,56751.08,-865.4599999999991,3084.9000000000015,10558115.0,-0.2162322998046875
1708449962.0706253,56751.08,-865.4599999999991,3080.9400000000023,10555480.0,-0.21556854248046875
1708449962.2044334,56747.100000000006,-865.4599999999991,3080.9400000000023,10552630.0,-0.21483230590820312
1708449962.3382418,56747.100000000006,-865.4599999999991,3080.9400000000023,10550777.0,-0.21428680419921875
1708449962.4720502,56747.100000000006,-865.4599999999991,3080.9400000000023,10548346.0,-0.21373367309570312
1708449962.6058583,56747.100000000006,-865.4599999999991,3076.989999999998,10545871.0,-0.2130908966064453
1708449962.7396667,56747.100000000006,-865.4599999999991,3076.989999999998,10542945.0,-0.21234893798828125
1708449962.873475,56747.100000000006,-865.4599999999991,3076.989999999998,10541176.0,-0.21184158325195312
1708449963.0072832,56747.100000000006,-865.4599999999991,3076.989999999998,10538888.0,-0.21129226684570312
1708449963.1410916,56747.100000000006,-865.4599999999991,3076.989999999998,10536213.0,-0.21062469482421875
1708449963.2749,56747.100000000006,-865.4599999999991,3073.029999999999,10533470.0,-0.20988845825195312
1708449963.408708,56743.130000000005,-865.4599999999991,3073.029999999999,10531855.0,-0.20943450927734375
1708449963.5425165,56743.130000000005,-865.4599999999991,3073.029999999999,10529394.0,-0.20885848999023438
1708449963.6763248,56743.130000000005,-865.4599999999991,3073.029999999999,10526813.0,-0.20820045471191406
1708449963.8101332,56743.130000000005,-865.4599999999991,3069.0800000000017,10524132.0,-0.2074737548828125
1708449963.9439414,56743.130000000005,-865.4599999999991,3069.0800000000017,10522544.0,-0.2070331573486328
1708449964.0777497,56739.16,-865.4599999999991,3065.1200000000026,10520109.0,-0.2064533233642578
1708449964.211558,56739.16,-865.4599999999991,3065.1200000000026,10517422.0,-0.2057971954345703
1708449964.3453662,56739.16,-865.4599999999991,3065.1200000000026,10514863.0,-0.2050914764404297
1708449964.4791746,56735.17999999999,-865.4599999999991,3065.1200000000026,10513151.0,-0.204620361328125
1708449964.612983,56735.17999999999,-865.4599999999991,3061.1699999999983,10510814.0,-0.20407485961914062
1708449964.7467911,56731.21000000001,-865.4599999999991,3061.1699999999983,10508104.0,-0.20340919494628906
1708449964.8805995,56731.21000000001,-865.4599999999991,3061.1699999999983,10505631.0,-0.2027149200439453
1708449965.0144079,56731.21000000001,-865.4599999999991,3057.209999999999,10504027.0,-0.20229721069335938
1708449965.148216,56731.21000000001,-861.4900000000016,3057.209999999999,10501513.0,-0.20168495178222656
1708449965.2820244,56727.229999999996,-861.4900000000016,3053.260000000002,10499037.0,-0.20105934143066406
1708449965.4158328,56727.229999999996,-861.4900000000016,3053.260000000002,10496482.0,-0.2003631591796875
1708449965.549641,56727.229999999996,-857.5200000000004,3053.260000000002,10494843.0,-0.19994354248046875
1708449965.6834493,56727.229999999996,-857.5200000000004,3049.300000000003,10492427.0,-0.1993541717529297
1708449965.8172576,56723.25,-857.5200000000004,3049.300000000003,10489854.0,-0.19870758056640625
1708449965.951066,56723.25,-857.5200000000004,3049.300000000003,10487569.0,-0.19805335998535156
1708449966.0848742,56723.25,-853.5499999999993,3049.300000000003,10485721.0,-0.19762802124023438
1708449966.2186825,56723.25,-853.5499999999993,3049.300000000003,10483405.0,-0.19703102111816406
1708449966.352491,56723.25,-849.5800000000017,3045.3499999999985,10480813.0,-0.19638442993164062
1708449966.486299,56719.28,-849.5800000000017,3045.3499999999985,10478809.0,-0.195770263671875
1708449966.6201074,56715.3,-849.5800000000017,3045.3499999999985,10477036.0,-0.19536781311035156
1708449966.7539158,56715.3,-849.5800000000017,3041.3899999999994,10474651.0,-0.1947612762451172
1708449966.887724,56715.3,-849.5800000000017,3041.3899999999994,10471939.0,-0.19409561157226562
1708449967.0215323,56715.3,-849.5800000000017,3041.3899999999994,10470048.0,-0.19351959228515625
1708449967.1553407,56715.3,-849.5800000000017,3041.3899999999994,10468133.0,-0.1930999755859375
1708449967.2891488,56715.3,-849.5800000000017,3041.3899999999994,10465687.0,-0.1924877166748047
1708449967.4229572,56715.3,-845.6100000000006,3041.3899999999994,10463060.0,-0.19182586669921875
1708449967.5567656,56711.33,-845.6100000000006,3037.4400000000023,10461490.0,-0.191314697265625
1708449967.6905737,56711.33,-845.6100000000006,3037.4400000000023,10459433.0,-0.1908588409423828
1708449967.824382,56707.36,-845.6100000000006,3037.4400000000023,10457117.0,-0.1902599334716797
