,x,y,z,temp,temp_error
1708450738.033164,-16019.25,6066.1600000000035,2017.050000000003,11129143.0,-0.3646221160888672
1708450738.1689656,-16997.1,6193.199999999997,1949.8199999999997,11118816.0,-0.3625450134277344
1708450738.3047671,-17990.85,6292.449999999997,1874.6699999999983,11108767.0,-0.3605308532714844
1708450738.4405687,-18996.53,6367.879999999997,1795.5699999999997,11099045.0,-0.3584270477294922
1708450738.5763705,-20014.129999999997,6415.519999999997,1712.510000000002,11089696.0,-0.3562469482421875
1708450738.712172,-21043.65,6439.3399999999965,1629.4599999999991,11081849.0,-0.3544044494628906
1708450738.8479736,-22089.08,6439.3399999999965,1546.4100000000035,11073753.0,-0.3524646759033203
1708450738.9837751,-23146.43,6415.519999999997,1463.3499999999985,11065578.0,-0.3504524230957031
1708450739.1195767,-24215.7,6367.879999999997,1384.25,11058664.0,-0.3485527038574219
1708450739.2553782,-25296.9,6300.389999999999,1309.0999999999985,11052209.0,-0.3468952178955078
1708450739.3911798,-26386.05,6213.050000000003,1241.8700000000026,11045506.0,-0.34509849548339844
1708450739.5269816,-27487.13,6105.860000000001,1178.5899999999965,11038740.0,-0.3432044982910156
1708450739.6627831,-28596.15,5982.790000000001,1123.2200000000012,11034001.0,-0.3417835235595703
1708450739.7985847,-29713.13,5839.870000000003,1079.7099999999991,11028630.0,-0.34027671813964844
1708450739.9343863,-30838.05,5685.040000000001,1044.1200000000026,11022770.0,-0.33864593505859375
1708450740.0701878,-31966.95,5514.330000000002,1020.3899999999994,11018401.0,-0.33716773986816406
1708450740.2059894,-33099.82,5331.709999999999,1004.5699999999997,11014552.0,-0.3360157012939453
1708450740.341791,-34236.68,5137.18,1000.6100000000006,11009937.0,-0.3346385955810547
1708450740.4775925,-35373.53,4934.709999999999,1008.5199999999968,11005632.0,-0.3332252502441406
1708450740.6133943,-36510.38,4724.300000000003,1024.3399999999965,11002928.0,-0.332244873046875
1708450740.7491958,-37647.229999999996,4505.949999999997,1052.0299999999988,10999307.0,-0.33118247985839844
1708450740.8849974,-38780.1,4283.629999999997,1091.5800000000017,10995577.0,-0.3300132751464844
1708450741.020799,-39905.03,4053.3700000000026,1143.0,10992678.0,-0.3289051055908203
1708450741.1566005,-41022.0,3819.1399999999994,1202.3199999999997,10990835.0,-0.32822227478027344
1708450741.292402,-42127.05,3580.9400000000023,1273.510000000002,10988073.0,-0.32732391357421875
1708450741.4282036,-43216.2,3342.739999999998,1352.6100000000006,10985225.0,-0.3263416290283203
1708450741.5640054,-44289.45,3100.5699999999997,1439.6200000000026,10983695.0,-0.3256359100341797
1708450741.699807,-45342.82,2854.4300000000003,1534.5400000000009,10982504.0,-0.3251304626464844
1708450741.8356085,-46376.33,2608.290000000001,1637.3700000000026,10980691.0,-0.32442665100097656
1708450741.97141,-47382.0,2366.1200000000026,1748.1100000000006,10979194.0,-0.32372093200683594
1708450742.1072116,-48363.83,2123.949999999997,1862.800000000003,10979080.0,-0.3234424591064453
1708450742.2430131,-49313.85,1881.7799999999988,1981.449999999997,10978142.0,-0.32300567626953125
1708450742.3788147,-50232.08,1643.5800000000017,2104.0599999999977,10976934.0,-0.3224773406982422
1708450742.5146165,-51118.5,1409.3499999999985,2230.6200000000026,10977125.0,-0.32217979431152344
1708450742.650418,-51969.16,1179.0899999999965,2357.1800000000003,10977300.0,-0.3220691680908203
1708450742.7862196,-52780.05,952.8000000000029,2483.739999999998,10976805.0,-0.3217487335205078
1708450742.9220212,-53551.2,734.4499999999971,2610.300000000003,10976502.0,-0.3214302062988281
1708450743.0578227,-54282.6,520.0699999999997,2736.8600000000006,10976969.0,-0.3213768005371094
1708450743.1936243,-54974.25,313.6299999999974,2859.459999999999,10976535.0,-0.32120323181152344
1708450743.3294258,-55626.16,115.12999999999738,2978.1200000000026,10975781.0,-0.32092857360839844
1708450743.4652276,-56234.33,-75.43000000000029,3092.8099999999977,10975325.0,-0.32067298889160156
1708450743.6010292,-56802.75,-258.0499999999993,3199.5899999999965,10974803.0,-0.32057952880859375
1708450743.7368307,-57331.43,-432.72999999999956,3302.4199999999983,10973580.0,-0.32027626037597656
1708450743.8726323,-57820.36,-599.4700000000012,3397.3399999999965,10971862.0,-0.3198871612548828
1708450744.0084338,-58273.5,-758.2700000000004,3484.3499999999985,10971037.0,-0.31966400146484375
1708450744.1442354,-58690.880000000005,-905.1599999999999,3567.4100000000035,10969163.0,-0.3193225860595703
1708450744.280037,-59072.479999999996,-1044.1100000000006,3642.550000000003,10967090.0,-0.3188934326171875
1708450744.4158385,-59422.28,-1175.119999999999,3709.790000000001,10965065.0,-0.31842994689941406
1708450744.5516403,-59740.28,-1298.1899999999987,3773.0699999999997,10963481.0,-0.3181266784667969
1708450744.6874418,-60030.45,-1413.3199999999997,3832.3899999999994,10961070.0,-0.31761741638183594
1708450744.8232434,-60296.78,-1520.5099999999984,3883.8099999999977,10958740.0,-0.3171195983886719
1708450744.959045,-60539.25,-1619.7599999999984,3931.269999999997,10956841.0,-0.3166675567626953
1708450745.0948465,-60757.880000000005,-1715.0400000000009,3970.8199999999997,10954322.0,-0.31617164611816406
1708450745.230648,-60952.65,-1798.4099999999999,4006.4100000000035,10951926.0,-0.31563568115234375
1708450745.3664496,-61131.53,-1877.8100000000013,4038.050000000003,10949609.0,-0.3150749206542969
1708450745.5022514,-61290.53,-1949.2700000000004,4069.6900000000023,10947603.0,-0.3146247863769531
1708450745.638053,-61433.630000000005,-2012.7900000000009,4097.379999999997,10945138.0,-0.3140544891357422
1708450745.7738545,-61560.83,-2072.34,4121.110000000001,10942795.0,-0.31351661682128906
1708450745.909656,-61676.1,-2127.9199999999983,4140.889999999999,10940725.0,-0.3129749298095703
1708450746.0454576,-61779.45,-2175.5600000000013,4156.699999999997,10938486.0,-0.3124713897705078
1708450746.1812592,-61870.880000000005,-2219.2299999999996,4172.519999999997,10936253.0,-0.311920166015625
1708450746.3170607,-61954.36,-2258.9300000000003,4184.389999999999,10933711.0,-0.311309814453125
1708450746.4528625,-62029.880000000005,-2294.66,4196.25,10931657.0,-0.3108062744140625
1708450746.588664,-62097.45,-2330.3899999999994,4204.1600000000035,10929252.0,-0.31021881103515625
1708450746.7244656,-62157.08,-2358.1800000000003,4212.07,10926991.0,-0.3096790313720703
1708450746.8602672,-62208.75,-2385.970000000001,4219.980000000003,10924739.0,-0.3090953826904297
1708450746.9960687,-62252.479999999996,-2409.790000000001,4223.940000000002,10922513.0,-0.308563232421875
1708450747.1318703,-62292.229999999996,-2429.6399999999994,4227.889999999999,10920372.0,-0.3080101013183594
1708450747.2676718,-62328.0,-2449.4900000000016,4231.8499999999985,10917875.0,-0.307403564453125
1708450747.4034736,-62359.81,-2465.369999999999,4235.800000000003,10915954.0,-0.30689048767089844
1708450747.5392752,-62387.630000000005,-2481.25,4239.760000000002,10913361.0,-0.3062705993652344
1708450747.6750767,-62411.479999999996,-2497.130000000001,4239.760000000002,10911111.0,-0.3057365417480469
1708450747.8108783,-62431.36,-2509.040000000001,4239.760000000002,10908800.0,-0.30511474609375
1708450747.9466798,-62451.229999999996,-2520.9500000000007,4239.760000000002,10906340.0,-0.3045539855957031
1708450748.0824814,-62467.130000000005,-2532.8600000000006,4239.760000000002,10904101.0,-0.3039703369140625
1708450748.218283,-62479.05,-2540.7999999999993,4239.760000000002,10901551.0,-0.3033561706542969
1708450748.3540847,-62490.979999999996,-2544.7700000000004,4239.760000000002,10899382.0,-0.3027915954589844
1708450748.4898863,-62502.9,-2552.709999999999,4239.760000000002,10896687.0,-0.3021507263183594
1708450748.6256878,-62510.85,-2556.6800000000003,4239.760000000002,10894501.0,-0.3016014099121094
1708450748.7614894,-62518.81,-2560.6500000000015,4239.760000000002,10891936.0,-0.3009471893310547
1708450748.897291,-62526.75,-2564.619999999999,4239.760000000002,10889542.0,-0.30037879943847656
1708450749.0330925,-62530.729999999996,-2568.59,4235.800000000003,10887126.0,-0.29975128173828125
1708450749.168894,-62534.7,-2572.5600000000013,4231.8499999999985,10884461.0,-0.2991199493408203
1708450749.3046956,-62538.68,-2572.5600000000013,4231.8499999999985,10882045.0,-0.29850196838378906
1708450749.4404974,-62542.65,-2576.529999999999,4227.889999999999,10879451.0,-0.2978649139404297
1708450749.576299,-62546.630000000005,-2576.529999999999,4223.940000000002,10876981.0,-0.2972679138183594
1708450749.7121005,-62546.630000000005,-2580.5,4223.940000000002,10874364.0,-0.2965965270996094
1708450749.847902,-62546.630000000005,-2580.5,4219.980000000003,10871808.0,-0.2959918975830078
1708450749.9837036,-62546.630000000005,-2580.5,4219.980000000003,10869304.0,-0.2953357696533203
1708450750.1195052,-62546.630000000005,-2580.5,4216.029999999999,10866753.0,-0.2947196960449219
1708450750.2553067,-62546.630000000005,-2580.5,4212.07,10864221.0,-0.29406166076660156
1708450750.3911085,-62546.630000000005,-2580.5,4212.07,10861426.0,-0.2933940887451172
1708450750.52691,-62546.630000000005,-2580.5,4208.120000000003,10858910.0,-0.2927742004394531
1708450750.6627116,-62546.630000000005,-2580.5,4204.1600000000035,10856119.0,-0.2920684814453125
1708450750.7985132,-62546.630000000005,-2580.5,4204.1600000000035,10853534.0,-0.29144859313964844
1708450750.9343147,-62546.630000000005,-2584.470000000001,4200.209999999999,10850918.0,-0.2907581329345703
1708450751.0701163,-62542.65,-2584.470000000001,4200.209999999999,10848136.0,-0.2901039123535156
1708450751.2059178,-62542.65,-2584.470000000001,4196.25,10845530.0,-0.2894172668457031
1708450751.3417196,-62538.68,-2584.470000000001,4192.300000000003,10842736.0,-0.2887535095214844
1708450751.4775212,-62534.7,-2584.470000000001,4192.300000000003,10840245.0,-0.2881050109863281
1708450751.6133227,-62534.7,-2584.470000000001,4188.3399999999965,10837299.0,-0.2873859405517578
1708450751.7491243,-62530.729999999996,-2584.470000000001,4188.3399999999965,10834711.0,-0.28674888610839844
1708450751.8849258,-62526.75,-2584.470000000001,4184.389999999999,10831811.0,-0.2860126495361328
1708450752.0207274,-62526.75,-2584.470000000001,4184.389999999999,10829136.0,-0.28536415100097656
1708450752.156529,-62526.75,-2584.470000000001,4180.43,10826386.0,-0.2846336364746094
1708450752.2923307,-62522.78,-2584.470000000001,4176.480000000003,10823734.0,-0.28399658203125
1708450752.4281323,-62522.78,-2584.470000000001,4172.519999999997,10821038.0,-0.283294677734375
1708450752.5639338,-62522.78,-2584.470000000001,4172.519999999997,10818065.0,-0.2825775146484375
1708450752.6997354,-62518.81,-2584.470000000001,4168.57,10815436.0,-0.2819099426269531
1708450752.835537,-62518.81,-2584.470000000001,4168.57,10812465.0,-0.2811717987060547
1708450752.9713385,-62518.81,-2584.470000000001,4164.620000000003,10809881.0,-0.2805213928222656
1708450753.10714,-62514.83,-2584.470000000001,4160.6600000000035,10806936.0,-0.27976417541503906
1708450753.2429416,-62514.83,-2584.470000000001,4156.699999999997,10804161.0,-0.27910614013671875
1708450753.3787434,-62514.83,-2584.470000000001,4152.75,10801405.0,-0.27837371826171875
1708450753.514545,-62514.83,-2584.470000000001,4152.75,10798339.0,-0.2776527404785156
1708450753.6503465,-62510.85,-2584.470000000001,4148.800000000003,10795746.0,-0.2769641876220703
1708450753.786148,-62510.85,-2584.470000000001,4148.800000000003,10792784.0,-0.2762298583984375
1708450753.9219496,-62506.880000000005,-2584.470000000001,4148.800000000003,10790118.0,-0.27555084228515625
1708450754.0577512,-62506.880000000005,-2584.470000000001,4144.8399999999965,10787224.0,-0.2748126983642578
1708450754.1935527,-62506.880000000005,-2584.470000000001,4144.8399999999965,10784469.0,-0.27413368225097656
1708450754.3293545,-62502.9,-2580.5,4140.889999999999,10781621.0,-0.2733879089355469
1708450754.465156,-62502.9,-2580.5,4136.93,10778800.0,-0.27269935607910156
1708450754.6009576,-62502.9,-2580.5,4136.93,10776060.0,-0.2719707489013672
1708450754.7367592,-62502.9,-2580.5,4132.980000000003,10772879.0,-0.2712230682373047
1708450754.8725607,-62502.9,-2580.5,4129.019999999997,10770374.0,-0.27054786682128906
1708450755.0083623,-62502.9,-2580.5,4129.019999999997,10767223.0,-0.2697792053222656
1708450755.1441638,-62502.9,-2580.5,4125.07,10764579.0,-0.26909828186035156
1708450755.2799656,-62502.9,-2580.5,4121.110000000001,10761632.0,-0.26834678649902344
1708450755.4157672,-62502.9,-2580.5,4121.110000000001,10758917.0,-0.2676715850830078
1708450755.5515687,-62502.9,-2580.5,4117.1600000000035,10755968.0,-0.2669029235839844
1708450755.6873703,-62502.9,-2580.5,4117.1600000000035,10753174.0,-0.2662220001220703
1708450755.8231719,-62502.9,-2580.5,4113.199999999997,10750283.0,-0.26546287536621094
1708450755.9589734,-62502.9,-2580.5,4113.199999999997,10747407.0,-0.2647724151611328
1708450756.094775,-62502.9,-2580.5,4109.25,10744704.0,-0.2640419006347656
1708450756.2305768,-62502.9,-2580.5,4105.290000000001,10741731.0,-0.26331138610839844
1708450756.3663783,-62502.9,-2580.5,4101.330000000002,10739115.0,-0.2626228332519531
1708450756.5021799,-62498.93,-2580.5,4097.379999999997,10736108.0,-0.26186561584472656
1708450756.6379814,-62498.93,-2580.5,4097.379999999997,10733524.0,-0.26120567321777344
1708450756.773783,-62494.95,-2580.5,4097.379999999997,10730372.0,-0.26041603088378906
1708450756.9095845,-62494.95,-2580.5,4093.4199999999983,10727644.0,-0.25974082946777344
1708450757.045386,-62494.95,-2580.5,4089.470000000001,10724886.0,-0.25899696350097656
1708450757.1811876,-62494.95,-2580.5,4085.510000000002,10721876.0,-0.2582683563232422
1708450757.3169894,-62494.95,-2580.5,4081.5599999999977,10719286.0,-0.2575836181640625
1708450757.452791,-62494.95,-2580.5,4077.5999999999985,10716318.0,-0.25682830810546875
1708450757.5885925,-62490.979999999996,-2580.5,4077.5999999999985,10713632.0,-0.25615501403808594
1708450757.724394,-62490.979999999996,-2580.5,4077.5999999999985,10710745.0,-0.2553997039794922
1708450757.8601956,-62490.979999999996,-2580.5,4073.6500000000015,10708008.0,-0.25472068786621094
1708450757.9959972,-62490.979999999996,-2580.5,4073.6500000000015,10705125.0,-0.2539691925048828
1708450758.1317987,-62490.979999999996,-2580.5,4069.6900000000023,10702289.0,-0.25327301025390625
1708450758.2676005,-62490.979999999996,-2580.5,4069.6900000000023,10699623.0,-0.2525653839111328
1708450758.403402,-62490.979999999996,-2580.5,4069.6900000000023,10696703.0,-0.2518291473388672
1708450758.5392036,-62490.979999999996,-2580.5,4065.739999999998,10694095.0,-0.2511634826660156
1708450758.6750052,-62490.979999999996,-2580.5,4065.739999999998,10691082.0,-0.2503948211669922
1708450758.8108068,-62490.979999999996,-2580.5,4061.779999999999,10688433.0,-0.24973106384277344
1708450758.9466083,-62490.979999999996,-2580.5,4061.779999999999,10685661.0,-0.24898529052734375
1708450759.0824099,-62490.979999999996,-2580.5,4057.8300000000017,10682671.0,-0.24828529357910156
1708450759.2182117,-62490.979999999996,-2580.5,4053.8700000000026,10680178.0,-0.24758529663085938
1708450759.3540132,-62490.979999999996,-2580.5,4049.9199999999983,10677236.0,-0.24686050415039062
1708450759.4898148,-62490.979999999996,-2580.5,4049.9199999999983,10674665.0,-0.24619483947753906
1708450759.6256163,-62490.979999999996,-2580.5,4045.959999999999,10671652.0,-0.2454376220703125
1708450759.7614179,-62490.979999999996,-2580.5,4045.959999999999,10669091.0,-0.244781494140625
1708450759.8972194,-62490.979999999996,-2580.5,4045.959999999999,10666251.0,-0.24402809143066406
1708450760.033021,-62490.979999999996,-2580.5,4045.959999999999,10663520.0,-0.24337005615234375
1708450760.1688228,-62490.979999999996,-2584.470000000001,4042.010000000002,10660934.0,-0.24265670776367188
1708450760.3046243,-62487.0,-2584.470000000001,4042.010000000002,10658007.0,-0.2419452667236328
1708450760.4404259,-62487.0,-2584.470000000001,4042.010000000002,10655551.0,-0.2412891387939453
1708450760.5762274,-62487.0,-2584.470000000001,4038.050000000003,10652608.0,-0.2405567169189453
1708450760.712029,-62487.0,-2584.470000000001,4034.0999999999985,10650076.0,-0.23990249633789062
1708450760.8478305,-62483.03,-2584.470000000001,4034.0999999999985,10647267.0,-0.2391643524169922
1708450760.983632,-62479.05,-2584.470000000001,4034.0999999999985,10644630.0,-0.23851776123046875
1708450761.1194336,-62479.05,-2584.470000000001,4034.0999999999985,10641979.0,-0.23780441284179688
1708450761.2552354,-62475.08,-2584.470000000001,4034.0999999999985,10639168.0,-0.23711585998535156
1708450761.391037,-62475.08,-2584.470000000001,4030.1399999999994,10636741.0,-0.23645401000976562
1708450761.5268385,-62475.08,-2584.470000000001,4026.1900000000023,10633706.0,-0.23572921752929688
1708450761.66264,-62475.08,-2584.470000000001,4026.1900000000023,10631215.0,-0.2350749969482422
1708450761.7984416,-62471.1,-2584.470000000001,4026.1900000000023,10628413.0,-0.23434066772460938
1708450761.9342432,-62471.1,-2584.470000000001,4026.1900000000023,10625838.0,-0.23370742797851562
1708450762.0700448,-62467.130000000005,-2584.470000000001,4026.1900000000023,10623120.0,-0.2329864501953125
1708450762.2058465,-62467.130000000005,-2584.470000000001,4022.230000000003,10620517.0,-0.2323322296142578
1708450762.341648,-62467.130000000005,-2584.470000000001,4022.230000000003,10617941.0,-0.23165321350097656
1708450762.4774497,-62467.130000000005,-2584.470000000001,4018.279999999999,10615133.0,-0.23096084594726562
1708450762.6132512,-62463.16,-2584.470000000001,4014.3199999999997,10612752.0,-0.23032188415527344
1708450762.7490528,-62463.16,-2584.470000000001,4014.3199999999997,10609882.0,-0.22958946228027344
1708450762.8848543,-62463.16,-2584.470000000001,4014.3199999999997,10607463.0,-0.22898101806640625
1708450763.0206559,-62463.16,-2584.470000000001,4010.3700000000026,10604864.0,-0.22827720642089844
1708450763.1564577,-62459.18,-2584.470000000001,4010.3700000000026,10602185.0,-0.22762680053710938
1708450763.2922592,-62459.18,-2584.470000000001,4010.3700000000026,10599709.0,-0.2269573211669922
1708450763.4280608,-62459.18,-2584.470000000001,4006.4100000000035,10596932.0,-0.2262859344482422
1708450763.5638623,-62459.18,-2584.470000000001,4002.459999999999,10594539.0,-0.2256450653076172
1708450763.6996639,-62459.18,-2588.4399999999987,4002.459999999999,10591731.0,-0.2249317169189453
1708450763.8354654,-62459.18,-2588.4399999999987,4002.459999999999,10589345.0,-0.22432899475097656
1708450763.971267,-62459.18,-2588.4399999999987,3998.5,10586642.0,-0.22362136840820312
1708450764.1070688,-62455.2,-2588.4399999999987,3998.5,10584185.0,-0.22300338745117188
1708450764.2428703,-62451.229999999996,-2588.4399999999987,3998.5,10581638.0,-0.2223186492919922
1708450764.378672,-62451.229999999996,-2588.4399999999987,3994.550000000003,10578990.0,-0.2216777801513672
1708450764.5144734,-62451.229999999996,-2588.4399999999987,3994.550000000003,10576659.0,-0.2210407257080078
1708450764.650275,-62451.229999999996,-2588.4399999999987,3994.550000000003,10573815.0,-0.22034072875976562
1708450764.7860765,-62451.229999999996,-2588.4399999999987,3994.550000000003,10571488.0,-0.21972274780273438
1708450764.921878,-62451.229999999996,-2588.4399999999987,3990.5899999999965,10568874.0,-0.2190532684326172
1708450765.0576797,-62447.25,-2588.4399999999987,3990.5899999999965,10566344.0,-0.21843528747558594
1708450765.1934814,-62443.28,-2588.4399999999987,3990.5899999999965,10563816.0,-0.21775245666503906
1708450765.329283,-62443.28,-2588.4399999999987,3990.5899999999965,10561462.0,-0.21716690063476562
1708450765.4650846,-62443.28,-2588.4399999999987,3986.6399999999994,10558998.0,-0.21649169921875
1708450765.600886,-62443.28,-2588.4399999999987,3986.6399999999994,10556379.0,-0.21586036682128906
1708450765.7366877,-62443.28,-2588.4399999999987,3982.6800000000003,10554136.0,-0.21525192260742188
1708450765.8724892,-62443.28,-2588.4399999999987,3982.6800000000003,10551379.0,-0.21456336975097656
1708450766.0082908,-62443.28,-2588.4399999999987,3978.730000000003,10549113.0,-0.21398162841796875
