,x,y,z,temp,temp_error
1708450137.1394885,8669.480000000003,-7261.130000000001,1415.8899999999994,10519180.0,0.0
1708450137.2734904,9237.900000000001,-7328.619999999999,1431.7099999999991,10519372.0,-0.20270919799804688
1708450137.4074922,9818.25,-7384.200000000001,1447.5299999999988,10519660.0,-0.20281410217285156
1708450137.5414941,10406.550000000003,-7427.869999999999,1459.3899999999994,10521241.0,-0.20317649841308594
1708450137.675496,11006.769999999997,-7455.66,1471.260000000002,10522325.0,-0.2035236358642578
1708450137.809498,11614.949999999997,-7475.509999999998,1483.1200000000026,10523249.0,-0.2037506103515625
1708450137.9434998,12235.050000000003,-7487.419999999998,1491.0299999999988,10524274.0,-0.20392990112304688
1708450138.0775018,12867.07,-7491.389999999999,1498.9400000000023,10526419.0,-0.2044391632080078
1708450138.2115037,13507.050000000003,-7487.419999999998,1506.8499999999985,10527878.0,-0.204803466796875
1708450138.3455057,14158.949999999997,-7479.48,1514.760000000002,10528915.0,-0.20503807067871094
1708450138.4795074,14822.769999999997,-7463.5999999999985,1522.6699999999983,10530729.0,-0.20536041259765625
1708450138.6135094,15502.5,-7443.75,1530.5800000000017,10533052.0,-0.20592308044433594
1708450138.7475114,16194.150000000001,-7419.93,1538.5,10534585.0,-0.20631027221679688
1708450138.8815134,16897.730000000003,-7392.139999999999,1546.4100000000035,10535825.0,-0.20658111572265625
1708450139.015515,17617.199999999997,-7360.380000000001,1554.3199999999997,10538188.0,-0.2070293426513672
1708450139.149517,18352.58,-7324.6500000000015,1562.2300000000032,10540326.0,-0.20761871337890625
1708450139.283519,19099.870000000003,-7284.950000000001,1570.1399999999994,10542083.0,-0.20801734924316406
1708450139.417521,19863.08,-7249.220000000001,1578.050000000003,10543503.0,-0.20830917358398438
1708450139.5515227,20646.15,-7209.52,1585.949999999997,10546156.0,-0.2088603973388672
1708450139.6855247,21445.120000000003,-7165.8499999999985,1597.8199999999997,10548589.0,-0.20951461791992188
1708450139.8195267,22260.0,-7118.209999999999,1609.6800000000003,10550235.0,-0.20992088317871094
1708450139.9535286,23094.75,-7070.57,1621.550000000003,10551971.0,-0.2102489471435547
1708450140.0875304,23949.370000000003,-7022.93,1633.4100000000035,10555065.0,-0.210968017578125
1708450140.2215323,24823.870000000003,-6971.32,1645.2799999999988,10557190.0,-0.2115325927734375
1708450140.3555343,25718.25,-6919.709999999999,1657.1399999999994,10558735.0,-0.21192550659179688
1708450140.4895363,26632.5,-6868.0999999999985,1669.010000000002,10560816.0,-0.21233367919921875
1708450140.623538,27566.620000000003,-6808.549999999999,1680.8700000000026,10563821.0,-0.21308326721191406
1708450140.75754,28524.6,-6749.0,1692.739999999998,10565859.0,-0.21364212036132812
1708450140.891542,29502.449999999997,-6689.450000000001,1704.5999999999985,10567434.0,-0.21402931213378906
1708450141.025544,30500.18,-6625.93,1720.4199999999983,10569727.0,-0.2144947052001953
1708450141.1595457,31521.75,-6554.470000000001,1736.25,10572504.0,-0.21525001525878906
1708450141.2935476,32563.199999999997,-6479.040000000001,1752.0699999999997,10574206.0,-0.2157306671142578
1708450141.4275496,33620.56,-6403.610000000001,1771.8399999999965,10575397.0,-0.21605300903320312
1708450141.5615516,34697.78,-6320.240000000002,1791.6100000000006,10577645.0,-0.2165508270263672
1708450141.6955533,35790.91,-6224.959999999999,1811.3899999999994,10579842.0,-0.21723556518554688
1708450141.8295553,36895.96000000001,-6121.740000000002,1835.1200000000026,10581117.0,-0.217620849609375
1708450141.9635572,38012.92,-6014.549999999999,1862.800000000003,10581744.0,-0.2178192138671875
1708450142.097559,39137.850000000006,-5895.450000000001,1890.489999999998,10584083.0,-0.21836090087890625
1708450142.231561,40266.75,-5760.470000000001,1922.1299999999974,10585518.0,-0.2189044952392578
1708450142.365563,41391.67999999999,-5617.549999999999,1953.7699999999968,10586429.0,-0.21921920776367188
1708450142.499565,42512.630000000005,-5466.689999999999,1989.3600000000006,10586702.0,-0.21931076049804688
1708450142.6335666,43621.649999999994,-5299.950000000001,2028.9100000000035,10588676.0,-0.21985435485839844
1708450142.7675686,44710.8,-5113.360000000001,2072.4199999999983,10589510.0,-0.2202167510986328
1708450142.9015706,45776.100000000006,-4918.830000000002,2115.9199999999983,10589862.0,-0.22037506103515625
1708450143.0355725,46809.600000000006,-4716.360000000001,2163.3899999999994,10590976.0,-0.22057533264160156
1708450143.1695743,47807.33,-4498.009999999998,2214.800000000003,10592883.0,-0.22112464904785156
1708450143.3035762,48761.33,-4267.75,2270.1699999999983,10593937.0,-0.22146987915039062
1708450143.4375782,49663.649999999994,-4037.4900000000016,2325.540000000001,10594637.0,-0.2216510772705078
1708450143.5715802,50514.3,-3799.290000000001,2384.8700000000026,10596670.0,-0.2220001220703125
1708450143.705582,51305.33,-3557.119999999999,2444.1900000000023,10599069.0,-0.22262001037597656
1708450143.8395839,52032.75,-3318.9199999999983,2503.510000000002,10600686.0,-0.22300338745117188
1708450143.9735858,52696.58,-3084.6899999999987,2562.8399999999965,10602008.0,-0.2232513427734375
1708450144.1075878,53296.8,-2858.4000000000015,2622.1600000000035,10604798.0,-0.22381973266601562
1708450144.2415895,53833.42,-2640.0499999999993,2681.489999999998,10606899.0,-0.2243976593017578
1708450144.3755915,54310.42,-2433.6100000000006,2736.8600000000006,10608052.0,-0.2247314453125
1708450144.5095935,54727.8,-2243.0499999999993,2788.269999999997,10608994.0,-0.2249298095703125
1708450144.6435955,55093.5,-2064.4000000000015,2835.730000000003,10610457.0,-0.2254047393798828
1708450144.7775972,55411.5,-1901.630000000001,2879.239999999998,10610911.0,-0.22568702697753906
1708450144.9115992,55689.75,-1754.7400000000016,2918.790000000001,10610344.0,-0.22574615478515625
1708450145.0456011,55928.25,-1619.7599999999984,2954.3899999999994,10609682.0,-0.22571754455566406
1708450145.179603,56134.96000000001,-1500.6599999999999,2986.019999999997,10609620.0,-0.2259044647216797
1708450145.3136048,56309.850000000006,-1393.4700000000012,3013.709999999999,10608157.0,-0.22583580017089844
1708450145.4476068,56460.91,-1298.1899999999987,3037.4400000000023,10606072.0,-0.22557830810546875
1708450145.5816088,56588.100000000006,-1214.8199999999997,3061.1699999999983,10604574.0,-0.2253570556640625
1708450145.7156107,56699.41,-1143.3600000000006,3080.9400000000023,10603090.0,-0.22527503967285156
1708450145.8496125,56790.83,-1079.8400000000001,3096.760000000002,10600793.0,-0.2249317169189453
1708450145.9836144,56870.33,-1024.2599999999984,3112.5800000000017,10598131.0,-0.2244701385498047
1708450146.1176164,56937.91,-976.619999999999,3124.449999999997,10596505.0,-0.2241497039794922
1708450146.2516181,56993.56,-936.9199999999983,3136.3199999999997,10594355.0,-0.22387123107910156
1708450146.38562,57041.25,-901.1899999999987,3148.1800000000003,10591879.0,-0.22340965270996094
1708450146.519622,57081.0,-869.4300000000003,3156.0899999999965,10589177.0,-0.22283554077148438
1708450146.653624,57116.78,-841.6399999999994,3164.0,10587509.0,-0.2225170135498047
1708450146.7876258,57148.58,-817.8199999999997,3171.9100000000035,10585117.0,-0.2220611572265625
1708450146.9216278,57172.42,-797.9700000000012,3175.8700000000026,10582593.0,-0.22152137756347656
1708450147.0556297,57192.3,-778.119999999999,3179.8199999999997,10580096.0,-0.2209300994873047
1708450147.1896317,57208.21000000001,-762.2400000000016,3183.769999999997,10578527.0,-0.22061538696289062
1708450147.3236334,57224.100000000006,-750.3300000000017,3187.730000000003,10576059.0,-0.22007179260253906
1708450147.4576354,57236.03,-738.4199999999983,3191.6800000000003,10573298.0,-0.2194499969482422
1708450147.5916374,57247.96000000001,-726.5099999999984,3195.6399999999994,10571574.0,-0.2189502716064453
1708450147.7256393,57255.91,-718.5699999999997,3195.6399999999994,10569628.0,-0.21856307983398438
1708450147.859641,57263.850000000006,-710.630000000001,3195.6399999999994,10567212.0,-0.21799468994140625
1708450147.993643,57267.83,-702.6899999999987,3195.6399999999994,10564686.0,-0.21738243103027344
1708450148.127645,57271.8,-694.75,3195.6399999999994,10563086.0,-0.21693038940429688
1708450148.261647,57275.78,-690.7799999999988,3195.6399999999994,10561011.0,-0.21646690368652344
1708450148.3956487,57279.75,-686.8100000000013,3195.6399999999994,10558694.0,-0.21590423583984375
1708450148.5296507,57283.729999999996,-682.8400000000001,3199.5899999999965,10556048.0,-0.2152252197265625
1708450148.6636527,57287.71000000001,-678.869999999999,3199.5899999999965,10554550.0,-0.21484756469726562
1708450148.7976546,57287.71000000001,-674.9000000000015,3199.5899999999965,10552381.0,-0.21432876586914062
1708450148.9316564,57287.71000000001,-670.9300000000003,3199.5899999999965,10550077.0,-0.2137603759765625
1708450149.0656583,57287.71000000001,-666.9599999999991,3199.5899999999965,10547883.0,-0.21313858032226562
1708450149.1996603,57287.71000000001,-666.9599999999991,3199.5899999999965,10546417.0,-0.21278762817382812
1708450149.3336623,57287.71000000001,-666.9599999999991,3199.5899999999965,10544118.0,-0.21222496032714844
1708450149.467664,57287.71000000001,-662.9900000000016,3203.550000000003,10541425.0,-0.21158599853515625
1708450149.601666,57287.71000000001,-662.9900000000016,3207.5,10539648.0,-0.2110595703125
1708450149.735668,57291.67999999999,-659.0200000000004,3207.5,10537793.0,-0.2106475830078125
1708450149.86967,57295.66,-659.0200000000004,3211.459999999999,10535483.0,-0.21007537841796875
1708450150.0036716,57299.630000000005,-659.0200000000004,3211.459999999999,10532959.0,-0.20942115783691406
1708450150.1376736,57299.630000000005,-655.0499999999993,3211.459999999999,10531431.0,-0.20897483825683594
1708450150.2716756,57303.600000000006,-655.0499999999993,3211.459999999999,10529524.0,-0.20853233337402344
1708450150.4056776,57303.600000000006,-651.0800000000017,3211.459999999999,10527278.0,-0.20797348022460938
1708450150.5396793,57303.600000000006,-651.0800000000017,3215.4100000000035,10524944.0,-0.20732879638671875
1708450150.6736813,57303.600000000006,-647.1100000000006,3215.4100000000035,10523627.0,-0.2069530487060547
1708450150.8076832,57303.600000000006,-647.1100000000006,3215.4100000000035,10521593.0,-0.20647621154785156
1708450150.941685,57303.600000000006,-647.1100000000006,3215.4100000000035,10519116.0,-0.2058868408203125
1708450151.075687,57303.600000000006,-647.1100000000006,3215.4100000000035,10517043.0,-0.20527267456054688
1708450151.209689,57303.600000000006,-647.1100000000006,3215.4100000000035,10515609.0,-0.2049236297607422
1708450151.3436909,57303.600000000006,-643.1399999999994,3215.4100000000035,10513483.0,-0.20440673828125
1708450151.4776926,57303.600000000006,-643.1399999999994,3215.4100000000035,10511145.0,-0.20382118225097656
1708450151.6116946,57303.600000000006,-643.1399999999994,3215.4100000000035,10509233.0,-0.20325660705566406
1708450151.7456965,57303.600000000006,-643.1399999999994,3215.4100000000035,10507832.0,-0.20292282104492188
1708450151.8796985,57303.600000000006,-647.1100000000006,3215.4100000000035,10505804.0,-0.20240020751953125
1708450152.0137002,57303.600000000006,-647.1100000000006,3215.4100000000035,10503300.0,-0.20179176330566406
1708450152.1477022,57303.600000000006,-647.1100000000006,3215.4100000000035,10501673.0,-0.20129776000976562
1708450152.2817042,57303.600000000006,-647.1100000000006,3215.4100000000035,10499993.0,-0.2009258270263672
1708450152.4157062,57303.600000000006,-651.0800000000017,3211.459999999999,10497826.0,-0.2003765106201172
1708450152.549708,57303.600000000006,-651.0800000000017,3211.459999999999,10495508.0,-0.19977569580078125
1708450152.6837099,57303.600000000006,-655.0499999999993,3207.5,10494101.0,-0.19934654235839844
1708450152.8177118,57303.600000000006,-659.0200000000004,3207.5,10492136.0,-0.19891738891601562
1708450152.9517138,57303.600000000006,-659.0200000000004,3207.5,10489891.0,-0.19836997985839844
1708450153.0857155,57303.600000000006,-662.9900000000016,3203.550000000003,10487761.0,-0.19776535034179688
1708450153.2197175,57303.600000000006,-666.9599999999991,3203.550000000003,10486491.0,-0.197418212890625
1708450153.3537195,57303.600000000006,-666.9599999999991,3203.550000000003,10484428.0,-0.19693565368652344
1708450153.4877214,57303.600000000006,-670.9300000000003,3203.550000000003,10482251.0,-0.1963958740234375
1708450153.6217232,57303.600000000006,-670.9300000000003,3199.5899999999965,10480016.0,-0.19577789306640625
1708450153.7557251,57303.600000000006,-670.9300000000003,3199.5899999999965,10478940.0,-0.19548416137695312
1708450153.889727,57303.600000000006,-674.9000000000015,3199.5899999999965,10476899.0,-0.19498443603515625
1708450154.023729,57303.600000000006,-674.9000000000015,3199.5899999999965,10474581.0,-0.19441986083984375
1708450154.1577308,57303.600000000006,-678.869999999999,3195.6399999999994,10472844.0,-0.1938953399658203
1708450154.2917328,57303.600000000006,-678.869999999999,3191.6800000000003,10471264.0,-0.19355010986328125
1708450154.4257348,57303.600000000006,-678.869999999999,3191.6800000000003,10469270.0,-0.1930389404296875
1708450154.5597367,57303.600000000006,-678.869999999999,3191.6800000000003,10467048.0,-0.19246864318847656
1708450154.6937385,57299.630000000005,-682.8400000000001,3191.6800000000003,10465660.0,-0.1920299530029297
1708450154.8277404,57299.630000000005,-686.8100000000013,3191.6800000000003,10463870.0,-0.1916484832763672
1708450154.9617424,57299.630000000005,-690.7799999999988,3191.6800000000003,10461817.0,-0.19112586975097656
1708450155.0957441,57299.630000000005,-690.7799999999988,3191.6800000000003,10459493.0,-0.19051551818847656
1708450155.229746,57299.630000000005,-690.7799999999988,3187.730000000003,10458360.0,-0.19016647338867188
1708450155.363748,57295.66,-694.75,3187.730000000003,10456576.0,-0.18976211547851562
1708450155.49775,57295.66,-698.7200000000012,3187.730000000003,10454563.0,-0.18924331665039062
1708450155.6317518,57295.66,-698.7200000000012,3187.730000000003,10452277.0,-0.1886310577392578
1708450155.7657537,57295.66,-698.7200000000012,3183.769999999997,10451184.0,-0.1883392333984375
1708450155.8997557,57295.66,-702.6899999999987,3183.769999999997,10449211.0,-0.1878662109375
1708450156.0337577,57295.66,-702.6899999999987,3183.769999999997,10446950.0,-0.18732261657714844
1708450156.1677594,57295.66,-706.6599999999999,3183.769999999997,10445285.0,-0.18680191040039062
1708450156.3017614,57295.66,-710.630000000001,3183.769999999997,10443778.0,-0.1864643096923828
1708450156.4357634,57295.66,-710.630000000001,3179.8199999999997,10441773.0,-0.1859760284423828
1708450156.5697653,57291.67999999999,-710.630000000001,3179.8199999999997,10439676.0,-0.18543624877929688
1708450156.703767,57291.67999999999,-710.630000000001,3179.8199999999997,10438184.0,-0.1849803924560547
1708450156.837769,57287.71000000001,-714.5999999999985,3179.8199999999997,10436776.0,-0.1846599578857422
1708450156.971771,57283.729999999996,-714.5999999999985,3179.8199999999997,10434781.0,-0.1841583251953125
1708450157.105773,57279.75,-714.5999999999985,3179.8199999999997,10432620.0,-0.18358802795410156
1708450157.2397747,57275.78,-718.5699999999997,3179.8199999999997,10431335.0,-0.18320465087890625
1708450157.3737767,57275.78,-718.5699999999997,3179.8199999999997,10429615.0,-0.18283462524414062
1708450157.5077786,57275.78,-718.5699999999997,3179.8199999999997,10427758.0,-0.18234825134277344
1708450157.6417806,57275.78,-718.5699999999997,3179.8199999999997,10425518.0,-0.18175315856933594
1708450157.7757823,57275.78,-718.5699999999997,3179.8199999999997,10424477.0,-0.18146324157714844
1708450157.9097843,57271.8,-718.5699999999997,3179.8199999999997,10422448.0,-0.18100357055664062
1708450158.0437863,57271.8,-718.5699999999997,3179.8199999999997,10420310.0,-0.18048858642578125
1708450158.1777883,57271.8,-718.5699999999997,3179.8199999999997,10418543.0,-0.17995452880859375
1708450158.31179,57271.8,-718.5699999999997,3179.8199999999997,10417487.0,-0.17967605590820312
1708450158.445792,57267.83,-714.5999999999985,3183.769999999997,10415556.0,-0.17922401428222656
1708450158.579794,57267.83,-714.5999999999985,3183.769999999997,10413425.0,-0.1786937713623047
1708450158.713796,57267.83,-714.5999999999985,3187.730000000003,10411901.0,-0.17821502685546875
1708450158.8477976,57267.83,-714.5999999999985,3191.6800000000003,10410548.0,-0.17792129516601562
1708450158.9817996,57267.83,-714.5999999999985,3195.6399999999994,10408589.0,-0.17743873596191406
1708450159.1158016,57267.83,-710.630000000001,3199.5899999999965,10406318.0,-0.17688941955566406
1708450159.2498035,57267.83,-706.6599999999999,3203.550000000003,10404905.0,-0.1764507293701172
1708450159.3838053,57267.83,-706.6599999999999,3207.5,10403601.0,-0.17615127563476562
1708450159.5178072,57267.83,-702.6899999999987,3211.459999999999,10401468.0,-0.17564010620117188
1708450159.6518092,57267.83,-698.7200000000012,3215.4100000000035,10399338.0,-0.17506790161132812
1708450159.785811,57267.83,-698.7200000000012,3215.4100000000035,10398434.0,-0.17477035522460938
1708450159.919813,57271.8,-694.75,3219.3700000000026,10396639.0,-0.17437362670898438
1708450160.053815,57275.78,-694.75,3223.3199999999997,10394716.0,-0.1739025115966797
1708450160.1878169,57279.75,-690.7799999999988,3223.3199999999997,10392681.0,-0.17333602905273438
1708450160.3218186,57283.729999999996,-686.8100000000013,3227.279999999999,10391734.0,-0.17305946350097656
1708450160.4558206,57287.71000000001,-686.8100000000013,3231.230000000003,10389836.0,-0.1726226806640625
1708450160.5898225,57291.67999999999,-682.8400000000001,3231.230000000003,10387725.0,-0.1721172332763672
1708450160.7238245,57295.66,-678.869999999999,3235.1900000000023,10386127.0,-0.17161941528320312
1708450160.8578262,57299.630000000005,-674.9000000000015,3235.1900000000023,10385006.0,-0.17136573791503906
1708450160.9918282,57303.600000000006,-670.9300000000003,3239.1399999999994,10383355.0,-0.17093658447265625
1708450161.1258302,57307.58,-670.9300000000003,3239.1399999999994,10381292.0,-0.17041969299316406
1708450161.2598321,57311.56,-666.9599999999991,3243.0999999999985,10379902.0,-0.16999244689941406
1708450161.3938339,57315.53,-666.9599999999991,3247.050000000003,10378676.0,-0.16971778869628906
1708450161.5278358,57319.5,-662.9900000000016,3247.050000000003,10376692.0,-0.1692371368408203
1708450161.6618378,57323.490000000005,-659.0200000000004,3247.050000000003,10374701.0,-0.1687164306640625
1708450161.7958398,57327.46000000001,-659.0200000000004,3247.050000000003,10373826.0,-0.1684131622314453
1708450161.9298415,57331.42,-655.0499999999993,3247.050000000003,10372181.0,-0.168060302734375
1708450162.0638435,57335.41,-655.0499999999993,3247.050000000003,10370399.0,-0.16759872436523438
1708450162.1978455,57335.41,-651.0800000000017,3247.050000000003,10368533.0,-0.1670703887939453
1708450162.3318474,57335.41,-647.1100000000006,3247.050000000003,10367610.0,-0.16682052612304688
1708450162.4658492,57335.41,-647.1100000000006,3247.050000000003,10365997.0,-0.16643905639648438
1708450162.5998511,57335.41,-647.1100000000006,3247.050000000003,10364060.0,-0.16597938537597656
1708450162.733853,57335.41,-647.1100000000006,3247.050000000003,10362309.0,-0.16546630859375
1708450162.867855,57335.41,-643.1399999999994,3247.050000000003,10361305.0,-0.16521644592285156
1708450163.0018568,57335.41,-643.1399999999994,3247.050000000003,10359767.0,-0.164825439453125
1708450163.1358588,57335.41,-643.1399999999994,3247.050000000003,10357627.0,-0.16431808471679688
1708450163.2698607,57335.41,-643.1399999999994,3247.050000000003,10356414.0,-0.16391944885253906
1708450163.4038627,57335.41,-643.1399999999994,3247.050000000003,10355290.0,-0.16367340087890625
1708450163.5378644,57335.41,-643.1399999999994,3247.050000000003,10353426.0,-0.16321945190429688
1708450163.6718664,57335.41,-643.1399999999994,3247.050000000003,10351498.0,-0.16271018981933594
