,x,y,z,temp,temp_error
1717693788.1985464,-20868.75,5923.239999999998,-14764.009999999998,8823137.0,0.0
1717693788.3331184,-21504.75,5903.389999999999,-15899.099999999999,8839355.0,-0.019573211669921875
1717693788.4676902,-22108.95,5871.629999999997,-17073.739999999998,8856150.0,-0.02162933349609375
1717693788.6022623,-22685.32,5831.93,-18287.92,8876849.0,-0.024099349975585938
1717693788.7368343,-23233.879999999997,5784.290000000001,-19537.7,8902524.0,-0.027460098266601562
1717693788.871406,-23754.6,5732.68,-20830.98,8930717.0,-0.031187057495117188
1717693789.005978,-24247.5,5677.0999999999985,-22163.82,8960469.0,-0.034679412841796875
1717693789.1405501,-24716.55,5617.550000000003,-23536.21,8996121.0,-0.03880119323730469
1717693789.275122,-25165.72,5561.970000000001,-24952.1,9038453.0,-0.044002532958984375
1717693789.409694,-25591.05,5506.389999999999,-26411.489999999998,9085531.0,-0.04979133605957031
1717693789.544266,-25996.5,5450.809999999998,-27910.44,9135833.0,-0.05562591552734375
1717693789.6788378,-26378.1,5399.199999999997,-29452.88,9193397.0,-0.06192207336425781
1717693789.8134098,-26739.83,5347.5899999999965,-31034.88,9260281.0,-0.06953239440917969
1717693789.9479818,-27085.65,5295.980000000003,-32652.48,9335057.0,-0.07804679870605469
1717693790.0825536,-27415.58,5244.370000000003,-34305.67,9415242.0,-0.08662796020507812
1717693790.2171257,-27733.58,5180.8499999999985,-35986.55,9505056.0,-0.09564018249511719
1717693790.3516974,-28035.68,5113.360000000001,-37691.15,9606877.0,-0.10584831237792969
1717693790.4862695,-28325.85,5029.989999999998,-39407.62,9720783.0,-0.11715507507324219
1717693790.6208415,-28604.1,4930.739999999998,-41132.0,9842861.0,-0.12847137451171875
1717693790.7554133,-28874.4,4815.610000000001,-42848.47,9977261.0,-0.13985252380371094
1717693790.8899853,-29128.8,4684.5999999999985,-44545.17,10126707.0,-0.1518402099609375
1717693791.0245574,-29367.3,4529.769999999997,-46210.22,10291812.0,-0.16448020935058594
1717693791.1591291,-29593.88,4351.120000000003,-47823.86,10470986.0,-0.17702293395996094
1717693791.2937012,-29804.55,4148.6500000000015,-49374.22,10642818.0,-0.18880844116210938
1717693791.4282732,-29999.33,3926.3300000000017,-50845.479999999996,10689808.0,-0.2001972198486328
1717693791.562845,-30174.22,3684.1600000000035,-52229.729999999996,10734150.0,-0.21160125732421875
1717693791.697417,-30329.25,3430.0800000000017,-53507.2,10772767.0,-0.22233963012695312
1717693791.831989,-30468.38,3168.0599999999977,-54673.92,10802304.0,-0.23152732849121094
1717693791.9665608,-30583.65,2902.0699999999997,-55725.95,10825791.0,-0.23958206176757812
1717693792.1011329,-30679.05,2651.959999999999,-56663.29,10843319.0,-0.24682998657226562
1717693792.235705,-30754.58,2417.730000000003,-57485.93,10853829.0,-0.2528724670410156
1717693792.3702767,-30810.22,2203.3499999999985,-58201.78,10856415.0,-0.2573966979980469
1717693792.5048487,-30849.98,2012.7900000000009,-58814.81,10854213.0,-0.260711669921875
1717693792.6394207,-30877.8,1842.0800000000017,-59340.83,10848793.0,-0.26328468322753906
1717693792.7739925,-30889.72,1699.1600000000035,-59791.69,10841244.0,-0.2651405334472656
1717693792.9085646,-30889.72,1584.0299999999988,-60179.28,10831519.0,-0.2662677764892578
1717693793.0431366,-30881.78,1492.7200000000012,-60507.55,10821442.0,-0.26682281494140625
1717693793.1777084,-30865.88,1425.2300000000032,-60784.4,10811908.0,-0.26717185974121094
1717693793.3122804,-30846.0,1373.6200000000026,-61017.740000000005,10802724.0,-0.2672290802001953
1717693793.4468524,-30822.15,1341.8600000000006,-61215.490000000005,10793887.0,-0.2671031951904297
1717693793.5814242,-30794.33,1325.9800000000032,-61389.520000000004,10785665.0,-0.2667102813720703
1717693793.7159963,-30766.5,1322.010000000002,-61535.85,10778619.0,-0.2663555145263672
1717693793.850568,-30738.68,1322.010000000002,-61658.45,10772047.0,-0.2658653259277344
1717693793.98514,-30714.83,1322.010000000002,-61765.240000000005,10766158.0,-0.26537132263183594
1717693794.119712,-30690.98,1322.010000000002,-61852.25,10760501.0,-0.26474571228027344
1717693794.254284,-30671.1,1322.010000000002,-61927.4,10755923.0,-0.26416778564453125
1717693794.388856,-30651.22,1322.010000000002,-61990.68,10751327.0,-0.2635326385498047
1717693794.523428,-30631.35,1318.0400000000009,-62042.09,10747420.0,-0.26292991638183594
1717693794.6579998,-30611.48,1310.0999999999985,-62081.64,10743521.0,-0.26226806640625
1717693794.7925718,-30595.58,1290.25,-62109.33,10740253.0,-0.2616462707519531
1717693794.9271438,-30583.65,1270.4000000000015,-62129.1,10737188.0,-0.26106834411621094
1717693795.0617156,-30567.75,1246.5800000000017,-62148.880000000005,10734256.0,-0.2604389190673828
1717693795.1962876,-30555.83,1222.760000000002,-62160.740000000005,10731376.0,-0.2598381042480469
1717693795.3308597,-30543.9,1194.9700000000012,-62168.65,10728653.0,-0.2591896057128906
1717693795.4654315,-30535.95,1167.1800000000003,-62172.6,10726152.0,-0.25864219665527344
1717693795.6000035,-30528.0,1135.4199999999983,-62176.56,10723528.0,-0.2579994201660156
1717693795.7345755,-30516.08,1115.5699999999997,-62180.520000000004,10720947.0,-0.25740814208984375
1717693795.8691473,-30504.15,1095.7200000000012,-62184.47,10718402.0,-0.2567615509033203
1717693796.0037193,-30492.22,1083.8099999999977,-62188.42,10716054.0,-0.25620460510253906
1717693796.1382914,-30480.3,1075.8700000000026,-62192.380000000005,10713421.0,-0.25555992126464844
1717693796.2728631,-30472.35,1075.8700000000026,-62196.33,10711165.0,-0.2550086975097656
1717693796.4074352,-30460.43,1079.8399999999965,-62200.29,10708382.0,-0.25432586669921875
1717693796.5420072,-30448.5,1095.7200000000012,-62208.2,10706033.0,-0.2537498474121094
1717693796.676579,-30440.55,1115.5699999999997,-62216.11,10703198.0,-0.2530803680419922
1717693796.811151,-30432.6,1139.3899999999994,-62224.020000000004,10700558.0,-0.25243377685546875
1717693796.945723,-30424.65,1171.1500000000015,-62231.93,10697730.0,-0.25176429748535156
1717693797.0802948,-30420.68,1202.9100000000035,-62239.84,10695230.0,-0.25112152099609375
1717693797.2148669,-30416.7,1230.699999999997,-62251.7,10692239.0,-0.25043487548828125
1717693797.3494387,-30412.72,1262.4599999999991,-62263.57,10689631.0,-0.24977493286132812
1717693797.4840107,-30412.72,1290.25,-62275.43,10686584.0,-0.2490673065185547
1717693797.6185827,-30412.72,1310.0999999999985,-62283.34,10684117.0,-0.2483978271484375
1717693797.7531545,-30416.7,1325.9800000000032,-62287.3,10681433.0,-0.24776077270507812
1717693797.8877265,-30416.7,1337.8899999999994,-62291.25,10678852.0,-0.24706649780273438
1717693798.0222986,-30420.68,1341.8600000000006,-62295.21,10676093.0,-0.24638938903808594
1717693798.1568704,-30420.68,1333.9199999999983,-62295.21,10673579.0,-0.24570465087890625
1717693798.2914424,-30424.65,1318.0400000000009,-62291.25,10671268.0,-0.2451305389404297
1717693798.4260144,-30428.63,1298.1900000000023,-62283.34,10668830.0,-0.2444610595703125
1717693798.5605862,-30432.6,1270.4000000000015,-62279.39,10666258.0,-0.24382591247558594
1717693798.6951582,-30436.58,1246.5800000000017,-62271.479999999996,10663855.0,-0.2431488037109375
1717693798.8297303,-30440.55,1214.8199999999997,-62263.57,10661516.0,-0.2425689697265625
1717693798.964302,-30444.53,1183.0599999999977,-62255.66,10659019.0,-0.2419109344482422
1717693799.098874,-30444.53,1155.2699999999968,-62247.75,10656709.0,-0.2413196563720703
1717693799.2334461,-30444.53,1131.449999999997,-62243.8,10654030.0,-0.2406158447265625
1717693799.368018,-30444.53,1115.5699999999997,-62239.84,10651805.0,-0.2400531768798828
1717693799.50259,-30440.55,1103.6600000000035,-62235.880000000005,10649170.0,-0.23939132690429688
1717693799.637162,-30436.58,1095.7200000000012,-62235.880000000005,10646587.0,-0.23875045776367188
1717693799.7717338,-30432.6,1095.7200000000012,-62235.880000000005,10643783.0,-0.23807907104492188
1717693799.9063058,-30428.63,1107.6299999999974,-62239.84,10641280.0,-0.23743820190429688
1717693800.0408778,-30424.65,1127.4800000000032,-62239.84,10638290.0,-0.23675155639648438
1717693800.1754496,-30420.68,1155.2699999999968,-62247.75,10635689.0,-0.23607254028320312
1717693800.3100216,-30416.7,1179.0899999999965,-62255.66,10632634.0,-0.2353649139404297
1717693800.4445937,-30412.72,1206.8799999999974,-62267.520000000004,10629907.0,-0.23466110229492188
1717693800.5791655,-30412.72,1234.6699999999983,-62275.43,10626998.0,-0.2339954376220703
1717693800.7137375,-30412.72,1266.4300000000003,-62283.34,10624043.0,-0.23324203491210938
1717693800.8483093,-30416.7,1290.25,-62291.25,10620992.0,-0.23254013061523438
1717693800.9828813,-30420.68,1310.0999999999985,-62299.16,10618038.0,-0.23176956176757812
1717693801.1174533,-30420.68,1325.9800000000032,-62307.08,10615382.0,-0.2311267852783203
1717693801.2520251,-30424.65,1337.8899999999994,-62314.990000000005,10612403.0,-0.2303638458251953
1717693801.3865972,-30428.63,1341.8600000000006,-62314.990000000005,10609667.0,-0.22967910766601562
1717693801.5211692,-30432.6,1337.8899999999994,-62314.990000000005,10606652.0,-0.2288990020751953
1717693801.655741,-30436.58,1325.9800000000032,-62311.03,10604284.0,-0.22826385498046875
1717693801.790313,-30440.55,1306.1299999999974,-62307.08,10601698.0,-0.22758865356445312
1717693801.924885,-30444.53,1278.3399999999965,-62299.16,10599264.0,-0.22693443298339844
1717693802.0594568,-30448.5,1250.550000000003,-62291.25,10596458.0,-0.22621726989746094
1717693802.1940289,-30452.48,1218.7900000000009,-62279.39,10594226.0,-0.2255859375
1717693802.328601,-30456.45,1187.0299999999988,-62271.479999999996,10591598.0,-0.2249469757080078
1717693802.4631727,-30456.45,1159.239999999998,-62267.520000000004,10589154.0,-0.22426795959472656
1717693802.5977447,-30456.45,1135.4199999999983,-62263.57,10586424.0,-0.22359275817871094
1717693802.7323167,-30456.45,1119.5400000000009,-62259.61,10584005.0,-0.22292518615722656
1717693802.8668885,-30456.45,1107.6299999999974,-62255.66,10581307.0,-0.22229385375976562
1717693803.0014606,-30456.45,1099.6900000000023,-62251.7,10578535.0,-0.2215747833251953
1717693803.1360326,-30452.48,1095.7200000000012,-62251.7,10575797.0,-0.22092628479003906
1717693803.2706044,-30448.5,1099.6900000000023,-62255.66,10572923.0,-0.2201824188232422
1717693803.4051764,-30444.53,1111.5999999999985,-62259.61,10570313.0,-0.21954917907714844
1717693803.5397484,-30440.55,1131.449999999997,-62263.57,10567283.0,-0.21880340576171875
1717693803.6743202,-30436.58,1159.239999999998,-62267.520000000004,10564444.0,-0.2181262969970703
1717693803.8088923,-30432.6,1191.0,-62275.43,10561387.0,-0.21735763549804688
1717693803.9434643,-30432.6,1222.760000000002,-62287.3,10558478.0,-0.2166595458984375
1717693804.078036,-30432.6,1254.5199999999968,-62299.16,10555291.0,-0.2158966064453125
1717693804.212608,-30432.6,1278.3399999999965,-62307.08,10552484.0,-0.21518325805664062
1717693804.3471801,-30436.58,1302.1600000000035,-62314.990000000005,10549250.0,-0.2144184112548828
1717693804.481752,-30440.55,1318.0400000000009,-62322.89,10546518.0,-0.21367263793945312
1717693804.616324,-30444.53,1329.949999999997,-62326.85,10543643.0,-0.212982177734375
1717693804.7508957,-30448.5,1337.8899999999994,-62330.81,10540766.0,-0.21222877502441406
1717693804.8854678,-30452.48,1337.8899999999994,-62330.81,10537815.0,-0.21149063110351562
1717693805.0200398,-30460.43,1329.949999999997,-62326.85,10535251.0,-0.21076202392578125
1717693805.1546116,-30464.4,1314.0699999999997,-62322.89,10532638.0,-0.21011924743652344
1717693805.2891836,-30468.38,1290.25,-62318.94,10529966.0,-0.20939254760742188
1717693805.4237556,-30472.35,1262.4599999999991,-62311.03,10527475.0,-0.20874786376953125
1717693805.5583274,-30476.33,1230.699999999997,-62303.119999999995,10524926.0,-0.20801925659179688
1717693805.6928995,-30480.3,1198.9400000000023,-62295.21,10522661.0,-0.2074298858642578
1717693805.8274715,-30484.28,1163.2099999999991,-62283.34,10520048.0,-0.2067432403564453
1717693805.9620433,-30484.28,1135.4199999999983,-62275.43,10517601.0,-0.2060985565185547
1717693806.0966153,-30480.3,1115.5699999999997,-62271.479999999996,10515018.0,-0.2054309844970703
1717693806.2311873,-30476.33,1099.6900000000023,-62267.520000000004,10512518.0,-0.20476722717285156
1717693806.3657591,-30472.35,1087.7799999999988,-62263.57,10509719.0,-0.20409774780273438
1717693806.5003312,-30472.35,1079.8399999999965,-62263.57,10507143.0,-0.20342445373535156
1717693806.6349032,-30468.38,1079.8399999999965,-62259.61,10504335.0,-0.20275115966796875
1717693806.769475,-30464.4,1091.75,-62263.57,10501713.0,-0.2020549774169922
1717693806.904047,-30460.43,1107.6299999999974,-62271.479999999996,10498856.0,-0.20139122009277344
1717693807.038619,-30456.45,1127.4800000000032,-62279.39,10496021.0,-0.20066070556640625
1717693807.1731908,-30452.48,1159.239999999998,-62287.3,10493072.0,-0.19997596740722656
1717693807.3077629,-30452.48,1187.0299999999988,-62299.16,10490081.0,-0.19919776916503906
1717693807.442335,-30452.48,1218.7900000000009,-62307.08,10487227.0,-0.19853591918945312
1717693807.5769067,-30452.48,1254.5199999999968,-62318.94,10484129.0,-0.19775772094726562
1717693807.7114787,-30452.48,1282.3099999999977,-62326.85,10481089.0,-0.19704818725585938
1717693807.8460507,-30456.45,1306.1299999999974,-62334.759999999995,10477965.0,-0.1962432861328125
1717693807.9806225,-30464.4,1318.0400000000009,-62338.72,10475258.0,-0.19557952880859375
1717693808.1151946,-30468.38,1325.9800000000032,-62338.72,10472363.0,-0.19483566284179688
1717693808.2497663,-30472.35,1333.9199999999983,-62342.67,10469798.0,-0.19414520263671875
1717693808.3843384,-30476.33,1333.9199999999983,-62342.67,10466776.0,-0.19336509704589844
1717693808.5189104,-30480.3,1322.010000000002,-62342.67,10464478.0,-0.1927337646484375
1717693808.6534822,-30484.28,1302.1600000000035,-62334.759999999995,10461896.0,-0.1920604705810547
1717693808.7880542,-30488.25,1274.3700000000026,-62326.85,10459577.0,-0.19141387939453125
1717693808.9226263,-30492.22,1246.5800000000017,-62318.94,10457000.0,-0.19072341918945312
1717693809.057198,-30496.2,1218.7900000000009,-62311.03,10454774.0,-0.19007301330566406
1717693809.19177,-30500.18,1187.0299999999988,-62303.119999999995,10452329.0,-0.1894817352294922
1717693809.326342,-30500.18,1155.2699999999968,-62299.16,10449963.0,-0.18882369995117188
1717693809.460914,-30500.18,1131.449999999997,-62291.25,10447450.0,-0.18817710876464844
1717693809.595486,-30500.18,1107.6299999999974,-62283.34,10445033.0,-0.18751144409179688
1717693809.730058,-30496.2,1091.75,-62279.39,10442600.0,-0.18692779541015625
1717693809.8646297,-30492.22,1079.8399999999965,-62279.39,10440085.0,-0.18625450134277344
1717693809.9992018,-30492.22,1071.9000000000015,-62279.39,10437496.0,-0.18563270568847656
1717693810.1337738,-30488.25,1071.9000000000015,-62279.39,10434809.0,-0.18492889404296875
1717693810.2683456,-30484.28,1079.8399999999965,-62279.39,10432370.0,-0.1843414306640625
1717693810.4029176,-30480.3,1095.7200000000012,-62283.34,10429605.0,-0.18363571166992188
1717693810.5374897,-30476.33,1119.5400000000009,-62291.25,10426930.0,-0.1829967498779297
1717693810.6720614,-30472.35,1147.3300000000017,-62299.16,10423905.0,-0.18223953247070312
1717693810.8066335,-30468.38,1175.1200000000026,-62311.03,10421328.0,-0.18161964416503906
1717693810.9412055,-30468.38,1210.8499999999985,-62318.94,10418419.0,-0.18090248107910156
1717693811.0757773,-30468.38,1242.6100000000006,-62326.85,10415660.0,-0.18022727966308594
1717693811.2103493,-30468.38,1274.3700000000026,-62334.759999999995,10412488.0,-0.1794586181640625
1717693811.3449214,-30472.35,1290.25,-62342.67,10410087.0,-0.17882347106933594
1717693811.4794931,-30476.33,1306.1299999999974,-62350.58,10407221.0,-0.17812347412109375
1717693811.6140652,-30480.3,1318.0400000000009,-62354.53,10404618.0,-0.1774463653564453
1717693811.748637,-30484.28,1325.9800000000032,-62354.53,10401655.0,-0.1766948699951172
1717693811.883209,-30488.25,1322.010000000002,-62354.53,10399443.0,-0.17605018615722656
1717693812.017781,-30492.22,1310.0999999999985,-62350.58,10396927.0,-0.17543411254882812
1717693812.1523528,-30496.2,1294.2200000000012,-62346.619999999995,10394673.0,-0.17479324340820312
1717693812.2869248,-30500.18,1266.4300000000003,-62338.72,10391994.0,-0.1741161346435547
1717693812.4214969,-30504.15,1238.6399999999994,-62330.81,10390131.0,-0.17351722717285156
1717693812.5560687,-30508.13,1206.8799999999974,-62326.85,10388002.0,-0.17298126220703125
1717693812.6906407,-30512.1,1175.1200000000026,-62318.94,10385755.0,-0.1723480224609375
1717693812.8252127,-30516.08,1139.3899999999994,-62311.03,10383391.0,-0.17175674438476562
1717693812.9597845,-30516.08,1115.5699999999997,-62307.08,10381388.0,-0.17113685607910156
1717693813.0943565,-30512.1,1095.7200000000012,-62299.16,10379015.0,-0.1705913543701172
1717693813.2289286,-30512.1,1079.8399999999965,-62295.21,10376776.0,-0.1699695587158203
1717693813.3635004,-30508.13,1063.9599999999991,-62291.25,10374423.0,-0.1694011688232422
1717693813.4980724,-30508.13,1063.9599999999991,-62295.21,10372033.0,-0.16875839233398438
1717693813.6326444,-30504.15,1063.9599999999991,-62295.21,10369642.0,-0.16820144653320312
1717693813.7672162,-30500.18,1075.8700000000026,-62299.16,10366991.0,-0.16753768920898438
1717693813.9017882,-30496.2,1095.7200000000012,-62303.119999999995,10364588.0,-0.16695213317871094
1717693814.0363603,-30492.22,1123.510000000002,-62307.08,10361852.0,-0.16626358032226562
1717693814.170932,-30488.25,1151.300000000003,-62314.990000000005,10359470.0,-0.165679931640625
1717693814.305504,-30484.28,1183.0599999999977,-62322.89,10356641.0,-0.16499900817871094
1717693814.440076,-30484.28,1218.7900000000009,-62334.759999999995,10354219.0,-0.16438674926757812
1717693814.574648,-30484.28,1254.5199999999968,-62342.67,10351096.0,-0.163665771484375
1717693814.70922,-30488.25,1278.3399999999965,-62350.58,10348628.0,-0.16301536560058594
1717693814.843792,-30492.22,1294.2200000000012,-62358.490000000005,10345996.0,-0.16238784790039062
1717693814.9783638,-30496.2,1306.1299999999974,-62362.44,10343626.0,-0.16175079345703125
1717693815.1129358,-30496.2,1314.0699999999997,-62366.4,10340889.0,-0.16106796264648438
1717693815.2475076,-30500.18,1318.0400000000009,-62366.4,10338825.0,-0.1604595184326172
1717693815.3820796,-30504.15,1310.0999999999985,-62366.4,10336582.0,-0.1598968505859375
1717693815.5166516,-30508.13,1294.2200000000012,-62358.490000000005,10334470.0,-0.1592884063720703
1717693815.6512234,-30512.1,1274.3700000000026,-62354.53,10332152.0,-0.1587047576904297
1717693815.7857955,-30516.08,1242.6100000000006,-62350.58,10330231.0,-0.1580944061279297
1717693815.9203675,-30520.05,1210.8499999999985,-62342.67,10328351.0,-0.15761947631835938
1717693816.0549393,-30524.03,1179.0899999999965,-62334.759999999995,10326345.0,-0.15704345703125
1717693816.1895113,-30528.0,1151.300000000003,-62326.85,10324149.0,-0.1564960479736328
1717693816.3240833,-30531.98,1119.5400000000009,-62318.94,10322018.0,-0.1558837890625
1717693816.458655,-30531.98,1095.7200000000012,-62314.990000000005,10320261.0,-0.155426025390625
1717693816.5932271,-30528.0,1075.8700000000026,-62311.03,10318019.0,-0.1548328399658203
1717693816.7277992,-30524.03,1059.989999999998,-62307.08,10316036.0,-0.15433692932128906
1717693816.862371,-30524.03,1056.0199999999968,-62307.08,10313807.0,-0.15373992919921875
1717693816.996943,-30524.03,1052.050000000003,-62307.08,10311701.0,-0.15323448181152344
1717693817.131515,-30520.05,1063.9599999999991,-62307.08,10309295.0,-0.15263748168945312
1717693817.2660868,-30516.08,1079.8399999999965,-62314.990000000005,10307035.0,-0.1520977020263672
1717693817.4006588,-30512.1,1099.6900000000023,-62318.94,10304363.0,-0.15145111083984375
1717693817.5352309,-30508.13,1127.4800000000032,-62326.85,10302252.0,-0.15090370178222656
1717693817.6698027,-30504.15,1163.2099999999991,-62330.81,10299615.0,-0.15029335021972656
1717693817.8043747,-30504.15,1198.9400000000023,-62342.67,10297277.0,-0.1497058868408203
