,x,y,z,temp,temp_error
1717701573.5034626,-5009.75,6287.760000000002,15220.349999999999,8697030.0,0.0
1717701573.6397352,-5279.240000000002,6675.209999999999,16111.96,8711101.0,-0.08170700073242188
1717701573.776008,-5555.639999999999,7073.730000000003,17014.699999999997,8724383.0,-0.08501815795898438
1717701573.9122806,-5838.950000000001,7483.32,17928.589999999997,8736338.0,-0.08800697326660156
1717701574.048553,-6132.619999999999,7907.669999999998,18853.620000000003,8747477.0,-0.09081077575683594
1717701574.1848257,-6436.669999999998,8346.779999999999,19793.519999999997,8757380.0,-0.09333992004394531
1717701574.3210983,-6754.52,8800.650000000001,20744.559999999998,8766045.0,-0.09557151794433594
1717701574.457371,-7082.75,9265.589999999997,21706.739999999998,8773593.0,-0.09753036499023438
1717701574.5936437,-7424.790000000001,9745.29,22680.08,8779926.0,-0.099151611328125
1717701574.7299163,-7780.66,10236.059999999998,23664.550000000003,8785232.0,-0.10052680969238281
1717701574.866189,-8150.34,10737.900000000001,24660.17,8790023.0,-0.1016998291015625
1717701575.0024617,-8537.3,11250.809999999998,25666.940000000002,8793493.0,-0.10251426696777344
1717701575.138734,-8938.09,11771.099999999999,26684.839999999997,8796972.0,-0.10328102111816406
1717701575.2750068,-9356.14,12298.769999999997,27710.190000000002,8799897.0,-0.1038818359375
1717701575.4112794,-9788.009999999998,12830.129999999997,28746.67,8802692.0,-0.10441017150878906
1717701575.547552,-10237.16,13361.489999999998,29790.58,8805203.0,-0.10489845275878906
1717701575.6838248,-10700.14,13892.849999999999,30845.64,8807316.0,-0.10530281066894531
1717701575.8200974,-11176.919999999998,14420.519999999997,31908.14,8809831.0,-0.10587882995605469
1717701575.95637,-11667.529999999999,14940.809999999998,32978.07000000001,8812277.0,-0.106475830078125
1717701576.0926425,-12168.509999999998,15453.720000000001,34051.69,8814576.0,-0.1070404052734375
1717701576.2289152,-12679.849999999999,15951.870000000003,35132.759999999995,8816960.0,-0.10764694213867188
1717701576.365188,-13198.099999999999,16438.949999999997,36217.53999999999,8819579.0,-0.10827064514160156
1717701576.5014606,-13719.8,16907.58,37306.03,8823008.0,-0.10903739929199219
1717701576.6377332,-14248.419999999998,17354.07,38394.53,8827176.0,-0.10996818542480469
1717701576.774006,-14773.580000000002,17778.42,39483.03,8832376.0,-0.11113929748535156
1717701576.9102786,-15291.830000000002,18180.629999999997,40571.520000000004,8838615.0,-0.11252784729003906
1717701577.046551,-15803.169999999998,18557.010000000002,41656.3,8845895.0,-0.11406707763671875
1717701577.1828237,-16300.689999999999,18907.559999999998,42733.64,8854700.0,-0.11603546142578125
1717701577.3190963,-16780.940000000002,19235.97,43803.57000000001,8864165.0,-0.11821746826171875
1717701577.455369,-17243.9,19538.550000000003,44858.630000000005,8874732.0,-0.12069129943847656
1717701577.5916417,-17682.690000000002,19822.68,45898.83,8886102.0,-0.1233978271484375
1717701577.7279143,-18093.84,20088.36,46916.740000000005,8897853.0,-0.1262340545654297
1717701577.864187,-18473.879999999997,20335.589999999997,47908.64,8909582.0,-0.12905311584472656
1717701578.0004597,-18826.3,20571.75,48870.83,8921371.0,-0.1318359375
1717701578.136732,-19147.61,20793.15,49795.86,8932180.0,-0.13439369201660156
1717701578.2730048,-19437.83,21007.17,50680.03,8942108.0,-0.1366252899169922
1717701578.4092774,-19696.96,21213.809999999998,51515.91,8950627.0,-0.138458251953125
1717701578.54555,-19924.98,21413.07,52303.490000000005,8957194.0,-0.13976478576660156
1717701578.6818228,-20125.379999999997,21604.949999999997,53035.350000000006,8961878.0,-0.14055633544921875
1717701578.8180954,-20298.129999999997,21789.449999999997,53711.47,8964419.0,-0.14078140258789062
1717701578.954368,-20446.690000000002,21970.260000000002,54331.880000000005,8964741.0,-0.14041900634765625
1717701579.0906405,-20571.07,22143.690000000002,54896.57000000001,8962716.0,-0.1394805908203125
1717701579.2269132,-20674.72,22306.050000000003,55405.520000000004,8958565.0,-0.1380176544189453
1717701579.363186,-20757.64,22461.03,55862.46000000001,8952400.0,-0.13605690002441406
1717701579.4994586,-20823.29,22604.940000000002,56267.39,8944343.0,-0.13361167907714844
1717701579.6357312,-20875.11,22745.160000000003,56624.03,8934526.0,-0.1307220458984375
1717701579.772004,-20913.120000000003,22874.309999999998,56939.82000000001,8923782.0,-0.12757301330566406
1717701579.9082766,-20940.760000000002,22988.699999999997,57214.72,8912141.0,-0.12416648864746094
1717701580.0445492,-20961.48,23099.4,57452.490000000005,8899835.0,-0.12055587768554688
1717701580.1808217,-20975.3,23195.339999999997,57656.81,8887154.0,-0.11685752868652344
1717701580.3170943,-20985.67,23280.21,57831.41,8874095.0,-0.113067626953125
1717701580.453367,-20989.129999999997,23365.08,57983.72,8861108.0,-0.10931205749511719
1717701580.5896397,-20992.58,23427.809999999998,58113.75,8848310.0,-0.10560989379882812
1717701580.7259123,-20992.58,23486.85,58221.490000000005,8835583.0,-0.10192108154296875
1717701580.862185,-20992.58,23534.82,58314.36,8822986.0,-0.09827041625976562
1717701580.9984577,-20992.58,23575.410000000003,58392.380000000005,8810358.0,-0.09462356567382812
1717701581.13473,-20992.58,23601.239999999998,58459.25,8797882.0,-0.09103202819824219
1717701581.2710028,-20989.129999999997,23630.760000000002,58518.69,8785566.0,-0.087493896484375
1717701581.4072754,-20985.67,23645.519999999997,58566.990000000005,8773409.0,-0.08400154113769531
1717701581.543548,-20985.67,23660.28,58611.57000000001,8761504.0,-0.08057975769042969
1717701581.6798208,-20985.67,23667.660000000003,58648.71000000001,8749753.0,-0.07720184326171875
1717701581.8160934,-20985.67,23675.04,58682.14,8738377.0,-0.07391166687011719
1717701581.952366,-20985.67,23675.04,58711.86,8727455.0,-0.07073020935058594
1717701582.0886385,-20985.67,23675.04,58737.869999999995,8716862.0,-0.06765365600585938
1717701582.2249112,-20989.129999999997,23678.730000000003,58763.880000000005,8706618.0,-0.06469535827636719
1717701582.361184,-20992.58,23675.04,58786.17,8696708.0,-0.06184196472167969
1717701582.4974566,-20996.04,23671.35,58808.46000000001,8687051.0,-0.05905914306640625
1717701582.6337292,-20999.489999999998,23667.660000000003,58827.03,8678036.0,-0.056446075439453125
1717701582.770002,-21002.95,23660.28,58845.600000000006,8669801.0,-0.05402565002441406
1717701582.9062746,-21006.4,23652.9,58864.17999999999,8662130.0,-0.05177879333496094
1717701583.0425472,-21013.309999999998,23649.21,58879.03999999999,8655353.0,-0.04977226257324219
1717701583.1788197,-21020.22,23641.83,58893.899999999994,8649573.0,-0.048030853271484375
1717701583.3150923,-21027.129999999997,23634.449999999997,58908.759999999995,8644680.0,-0.04651451110839844
1717701583.451365,-21034.04,23623.379999999997,58923.619999999995,8640646.0,-0.04520988464355469
1717701583.5876377,-21040.95,23616.0,58942.2,8637729.0,-0.04419136047363281
1717701583.7239103,-21047.86,23608.620000000003,58957.05,8635967.0,-0.04345893859863281
1717701583.860183,-21054.77,23604.93,58971.92,8635128.0,-0.04295158386230469
1717701583.9964557,-21058.22,23601.239999999998,58983.07000000001,8635318.0,-0.04271888732910156
1717701584.132728,-21061.68,23601.239999999998,58994.21000000001,8636222.0,-0.042690277099609375
1717701584.2690008,-21068.59,23597.550000000003,59005.350000000006,8638136.0,-0.0429229736328125
1717701584.4052734,-21072.05,23597.550000000003,59016.5,8640762.0,-0.043323516845703125
1717701584.541546,-21075.5,23597.550000000003,59023.92,8644112.0,-0.04389762878417969
1717701584.6778188,-21078.96,23601.239999999998,59031.36,8648322.0,-0.04467010498046875
1717701584.8140914,-21078.96,23608.620000000003,59038.78,8652965.0,-0.04555702209472656
1717701584.950364,-21078.96,23612.309999999998,59042.5,8658096.0,-0.046573638916015625
1717701585.0866368,-21082.41,23619.690000000002,59046.21000000001,8663864.0,-0.04775047302246094
1717701585.2229092,-21082.41,23627.07,59046.21000000001,8669984.0,-0.048984527587890625
1717701585.359182,-21082.41,23630.760000000002,59046.21000000001,8676499.0,-0.05029487609863281
1717701585.4954545,-21082.41,23638.14,59046.21000000001,8683259.0,-0.05164527893066406
1717701585.6317272,-21082.41,23641.83,59046.21000000001,8690091.0,-0.05300140380859375
1717701585.768,-21082.41,23645.519999999997,59042.5,8696837.0,-0.05432891845703125
1717701585.9042726,-21082.41,23649.21,59042.5,8703331.0,-0.055583953857421875
1717701586.0405452,-21082.41,23652.9,59038.78,8709662.0,-0.05680084228515625
1717701586.1768177,-21078.96,23660.28,59035.07000000001,8715793.0,-0.05796051025390625
1717701586.3130903,-21075.5,23667.660000000003,59031.36,8721684.0,-0.059040069580078125
1717701586.449363,-21068.59,23667.660000000003,59027.64,8727006.0,-0.059955596923828125
1717701586.5856357,-21061.68,23675.04,59023.92,8731761.0,-0.060710906982421875
1717701586.7219083,-21054.77,23682.42,59020.21000000001,8736172.0,-0.061370849609375
1717701586.858181,-21047.86,23689.800000000003,59012.78,8739911.0,-0.06186103820800781
1717701586.9944537,-21040.95,23700.870000000003,59005.350000000006,8743157.0,-0.06222724914550781
1717701587.1307263,-21030.59,23711.940000000002,58997.92,8745931.0,-0.06245613098144531
1717701587.2669988,-21020.22,23723.010000000002,58990.490000000005,8748154.0,-0.062530517578125
1717701587.4032714,-21009.86,23734.08,58983.07000000001,8750044.0,-0.06249427795410156
1717701587.539544,-21002.95,23745.15,58971.92,8751334.0,-0.062290191650390625
1717701587.6758168,-20996.04,23756.22,58964.490000000005,8752071.0,-0.06195259094238281
1717701587.8120894,-20985.67,23767.29,58953.350000000006,8752267.0,-0.06149864196777344
1717701587.948362,-20975.3,23782.050000000003,58942.2,8751937.0,-0.06091499328613281
1717701588.0846348,-20964.940000000002,23793.120000000003,58931.05,8751387.0,-0.06027793884277344
1717701588.2209072,-20954.58,23800.5,58919.91,8750273.0,-0.05948829650878906
1717701588.3571799,-20944.21,23811.57,58908.759999999995,8748723.0,-0.05858421325683594
1717701588.4934525,-20933.85,23818.949999999997,58901.33,8746912.0,-0.05761909484863281
1717701588.6297252,-20920.03,23826.33,58893.899999999994,8744621.0,-0.0565338134765625
1717701588.765998,-20909.66,23837.4,58886.47,8741903.0,-0.05535125732421875
1717701588.9022706,-20899.3,23844.78,58875.33,8738964.0,-0.0541229248046875
1717701589.0385432,-20885.48,23855.85,58867.89,8735684.0,-0.05281829833984375
1717701589.1748157,-20875.11,23866.92,58856.75,8732350.0,-0.05149650573730469
1717701589.3110883,-20864.739999999998,23877.989999999998,58849.32000000001,8728619.0,-0.05007171630859375
1717701589.447361,-20854.379999999997,23881.68,58841.89,8724901.0,-0.048641204833984375
1717701589.5836337,-20844.02,23892.75,58834.46000000001,8721117.0,-0.04720115661621094
1717701589.7199063,-20833.65,23900.129999999997,58827.03,8717208.0,-0.04577064514160156
1717701589.856179,-20823.29,23907.510000000002,58819.600000000006,8713272.0,-0.044353485107421875
1717701589.9924517,-20812.92,23914.89,58812.17,8709307.0,-0.042938232421875
1717701590.1287243,-20806.010000000002,23922.269999999997,58804.740000000005,8705326.0,-0.04152107238769531
1717701590.2649968,-20799.1,23922.269999999997,58801.03,8701406.0,-0.04011726379394531
1717701590.4012694,-20792.190000000002,23922.269999999997,58797.32000000001,8697490.0,-0.03872489929199219
1717701590.537542,-20785.28,23922.269999999997,58793.600000000006,8693592.0,-0.037353515625
1717701590.6738148,-20778.370000000003,23922.269999999997,58789.880000000005,8689866.0,-0.03605461120605469
1717701590.8100874,-20774.92,23922.269999999997,58786.17,8686342.0,-0.03481483459472656
1717701590.94636,-20771.46,23918.58,58786.17,8683097.0,-0.03364753723144531
1717701591.0826328,-20768.010000000002,23914.89,58786.17,8680183.0,-0.032573699951171875
1717701591.2189052,-20764.55,23911.199999999997,58786.17,8677596.0,-0.03157615661621094
1717701591.3551779,-20761.1,23903.82,58789.880000000005,8675594.0,-0.030729293823242188
1717701591.4914505,-20757.64,23900.129999999997,58793.600000000006,8673917.0,-0.029966354370117188
1717701591.6277232,-20754.190000000002,23900.129999999997,58797.32000000001,8672615.0,-0.029327392578125
1717701591.763996,-20754.190000000002,23896.440000000002,58797.32000000001,8671671.0,-0.02878570556640625
1717701591.9002686,-20754.190000000002,23892.75,58801.03,8671019.0,-0.02834320068359375
1717701592.0365412,-20754.190000000002,23892.75,58804.740000000005,8670793.0,-0.027996063232421875
1717701592.172814,-20754.190000000002,23889.059999999998,58808.46000000001,8671024.0,-0.027753829956054688
1717701592.3090863,-20754.190000000002,23892.75,58808.46000000001,8671452.0,-0.027553558349609375
1717701592.445359,-20757.64,23889.059999999998,58808.46000000001,8672329.0,-0.02747344970703125
1717701592.5816317,-20761.1,23885.370000000003,58812.17,8673272.0,-0.027433395385742188
1717701592.7179043,-20764.55,23881.68,58815.89,8674480.0,-0.027462005615234375
1717701592.854177,-20771.46,23874.300000000003,58819.600000000006,8675873.0,-0.027540206909179688
1717701592.9904497,-20774.92,23866.92,58823.32000000001,8677483.0,-0.027637481689453125
1717701593.1267223,-20781.82,23863.230000000003,58827.03,8679055.0,-0.0277099609375
1717701593.2629948,-20788.739999999998,23852.160000000003,58834.46000000001,8680902.0,-0.02785491943359375
1717701593.3992674,-20795.64,23844.78,58838.17,8682600.0,-0.027963638305664062
1717701593.53554,-20802.559999999998,23837.4,58845.600000000006,8684440.0,-0.02811431884765625
1717701593.6718128,-20812.92,23822.64,58853.03,8686071.0,-0.028219223022460938
1717701593.8080854,-20823.29,23815.260000000002,58860.46000000001,8687596.0,-0.02829742431640625
1717701593.944358,-20830.2,23800.5,58871.61,8689095.0,-0.028367996215820312
1717701594.0806308,-20837.11,23789.43,58879.03999999999,8690307.0,-0.028367996215820312
1717701594.2169032,-20847.47,23778.36,58886.47,8691414.0,-0.02832794189453125
1717701594.3531759,-20857.84,23770.980000000003,58893.899999999994,8692183.0,-0.02820587158203125
1717701594.4894485,-20868.2,23763.6,58905.05,8692805.0,-0.028045654296875
1717701594.6257212,-20878.559999999998,23756.22,58916.19,8692975.0,-0.02777862548828125
1717701594.761994,-20888.93,23745.15,58927.33,8693036.0,-0.027486801147460938
1717701594.8982666,-20899.3,23737.769999999997,58938.490000000005,8692406.0,-0.027036666870117188
1717701595.0345392,-20909.66,23734.08,58945.91,8691848.0,-0.026576995849609375
1717701595.170812,-20920.03,23730.39,58957.05,8691076.0,-0.026050567626953125
1717701595.3070843,-20926.940000000002,23719.32,58968.21000000001,8690104.0,-0.025465011596679688
1717701595.443357,-20937.3,23719.32,58975.630000000005,8688863.0,-0.02484130859375
1717701595.5796297,-20944.21,23708.25,58983.07000000001,8687445.0,-0.02419281005859375
1717701595.7159023,-20951.120000000003,23700.870000000003,58990.490000000005,8685927.0,-0.02353668212890625
1717701595.852175,-20961.48,23700.870000000003,58997.92,8684163.0,-0.02281951904296875
1717701595.9884477,-20968.4,23689.800000000003,59009.07000000001,8682346.0,-0.022089004516601562
1717701596.1247203,-20975.3,23678.730000000003,59020.21000000001,8680328.0,-0.021312713623046875
1717701596.2609928,-20982.22,23671.35,59027.64,8678282.0,-0.020538330078125
1717701596.3972654,-20989.129999999997,23671.35,59035.07000000001,8676073.0,-0.019750595092773438
1717701596.533538,-20996.04,23667.660000000003,59042.5,8674067.0,-0.019012451171875
1717701596.6698108,-21002.95,23660.28,59049.92,8671958.0,-0.018259048461914062
1717701596.8060834,-21009.86,23660.28,59057.36,8669895.0,-0.017520904541015625
1717701596.942356,-21013.309999999998,23656.589999999997,59064.78,8668088.0,-0.016843795776367188
1717701597.0786288,-21016.77,23652.9,59068.5,8666457.0,-0.016206741333007812
1717701597.2149014,-21016.77,23656.589999999997,59072.22,8664959.0,-0.015596389770507812
1717701597.3511739,-21016.77,23656.589999999997,59075.92999999999,8663588.0,-0.015048980712890625
1717701597.4874465,-21020.22,23660.28,59079.649999999994,8662474.0,-0.01456451416015625
1717701597.6237192,-21020.22,23660.28,59079.649999999994,8661342.0,-0.0141143798828125
1717701597.759992,-21023.68,23663.97,59083.36,8660331.0,-0.013698577880859375
1717701597.8962646,-21023.68,23667.660000000003,59083.36,8659464.0,-0.013309478759765625
1717701598.0325372,-21023.68,23671.35,59083.36,8658843.0,-0.012981414794921875
1717701598.16881,-21020.22,23675.04,59079.649999999994,8658331.0,-0.012683868408203125
1717701598.3050823,-21020.22,23682.42,59075.92999999999,8657903.0,-0.012418746948242188
1717701598.441355,-21020.22,23682.42,59075.92999999999,8657608.0,-0.012186050415039062
1717701598.5776277,-21020.22,23686.11,59075.92999999999,8657269.0,-0.011966705322265625
1717701598.7139003,-21020.22,23686.11,59075.92999999999,8656935.0,-0.011749267578125
1717701598.850173,-21020.22,23689.800000000003,59072.22,8656763.0,-0.01154327392578125
1717701598.9864457,-21016.77,23689.800000000003,59068.5,8656767.0,-0.011377334594726562
1717701599.1227183,-21013.309999999998,23689.800000000003,59064.78,8656953.0,-0.011260986328125
1717701599.2589908,-21009.86,23693.489999999998,59061.08,8657200.0,-0.01116943359375
1717701599.3952634,-21006.4,23697.18,59057.36,8657508.0,-0.011089324951171875
1717701599.531536,-21002.95,23700.870000000003,59053.64,8657847.0,-0.011030197143554688
1717701599.6678088,-20996.04,23704.559999999998,59049.92,8658173.0,-0.010976791381835938
1717701599.8040814,-20989.129999999997,23711.940000000002,59046.21000000001,8658468.0,-0.01091766357421875
1717701599.940354,-20982.22,23715.629999999997,59042.5,8658732.0,-0.010833740234375
1717701600.0766268,-20975.3,23723.010000000002,59035.07000000001,8659113.0,-0.010776519775390625
1717701600.2128994,-20968.4,23734.08,59027.64,8659450.0,-0.010715484619140625
1717701600.3491719,-20961.48,23737.769999999997,59020.21000000001,8659470.0,-0.0106048583984375
1717701600.4854445,-20954.58,23745.15,59012.78,8659533.0,-0.010503768920898438
1717701600.6217172,-20944.21,23759.910000000003,59005.350000000006,8659567.0,-0.010389328002929688
1717701600.75799,-20937.3,23770.980000000003,58997.92,8659545.0,-0.010240554809570312
1717701600.8942626,-20926.940000000002,23785.739999999998,58986.770000000004,8659494.0,-0.010049819946289062
1717701601.0305352,-20916.57,23793.120000000003,58979.350000000006,8659552.0,-0.009914398193359375
1717701601.166808,-20906.21,23800.5,58971.92,8659424.0,-0.00974273681640625
1717701601.3030803,-20899.3,23807.879999999997,58960.770000000004,8659144.0,-0.00954437255859375
1717701601.439353,-20888.93,23815.260000000002,58949.630000000005,8658824.0,-0.009351730346679688
1717701601.5756257,-20878.559999999998,23822.64,58938.490000000005,8658358.0,-0.009124755859375
1717701601.7118983,-20868.2,23837.4,58927.33,8657803.0,-0.008867263793945312
1717701601.848171,-20861.29,23841.089999999997,58916.19,8657302.0,-0.00861358642578125
1717701601.9844437,-20850.93,23848.47,58908.759999999995,8656595.0,-0.00830841064453125
1717701602.1207163,-20844.02,23855.85,58897.61,8655850.0,-0.008024215698242188
1717701602.256989,-20833.65,23863.230000000003,58890.19,8654979.0,-0.0077190399169921875
1717701602.3932614,-20823.29,23870.61,58882.75,8654061.0,-0.0073871612548828125
1717701602.529534,-20812.92,23885.370000000003,58871.61,8653236.0,-0.0070629119873046875
1717701602.6658068,-20806.010000000002,23892.75,58864.17999999999,8652393.0,-0.006725311279296875
1717701602.8020794,-20795.64,23892.75,58856.75,8651588.0,-0.006412506103515625
1717701602.938352,-20788.739999999998,23900.129999999997,58849.32000000001,8650616.0,-0.0060634613037109375
1717701603.0746248,-20778.370000000003,23907.510000000002,58841.89,8649783.0,-0.00577545166015625
1717701603.2108974,-20768.010000000002,23914.89,58830.75,8648892.0,-0.0054874420166015625
1717701603.3471699,-20757.64,23922.269999999997,58823.32000000001,8648032.0,-0.005199432373046875
1717701603.4834425,-20750.73,23929.65,58815.89,8647247.0,-0.0049266815185546875
