,x,y,z,temp,temp_error
1714595142.7751603,4225.419999999998,13049.39,28883.370000000003,10957236.0,0.0
1714595142.9162138,4058.480000000003,14057.769999999997,30204.33,11002987.0,-0.28195762634277344
1714595143.057267,3839.8499999999985,15050.269999999997,31446.199999999997,11045811.0,-0.29265403747558594
1714595143.1983204,3565.5699999999997,16018.949999999997,32601.07,11085320.0,-0.3033180236816406
1714595143.3393738,3243.5999999999985,16951.9,33661.0,11116367.0,-0.3126640319824219
1714595143.480427,2873.9199999999983,17833.239999999998,34618.119999999995,11140556.0,-0.3206787109375
1714595143.6214805,2460.519999999997,18655.03,35476.36,11159724.0,-0.3281059265136719
1714595143.762534,2011.3499999999985,19409.33,36235.72,11170470.0,-0.3340911865234375
1714595143.903587,1534.3499999999985,20088.199999999997,36900.16,11174000.0,-0.3385181427001953
1714595144.0446405,1033.5,20687.67,37473.630000000005,11173246.0,-0.34212493896484375
1714595144.1856937,516.75,21207.739999999998,37964.05,11167575.0,-0.3446998596191406
1714595144.3267472,-7.950000000000728,21648.410000000003,38383.28,11157437.0,-0.3460254669189453
1714595144.4678006,-536.619999999999,22017.620000000003,38735.28,11146666.0,-0.34692955017089844
1714595144.6088538,-1061.3199999999997,22319.339999999997,39031.899999999994,11134369.0,-0.3472270965576172
1714595144.7499073,-1574.0999999999985,22561.510000000002,39277.11,11121387.0,-0.3469734191894531
1714595144.8909607,-2074.9500000000007,22748.1,39482.770000000004,11109409.0,-0.3465118408203125
1714595145.032014,-2559.9000000000015,22887.050000000003,39652.83,11098474.0,-0.34590911865234375
1714595145.1730673,-3024.970000000001,22982.33,39795.21000000001,11087648.0,-0.3450775146484375
1714595145.3141208,-3466.2000000000007,23041.879999999997,39913.86,11078521.0,-0.344207763671875
1714595145.455174,-3883.5699999999997,23069.67,40012.740000000005,11070402.0,-0.34333038330078125
1714595145.5962274,-4277.0999999999985,23073.64,40091.850000000006,11063185.0,-0.34245872497558594
1714595145.7372808,-4642.799999999999,23057.760000000002,40159.08,11056605.0,-0.3414955139160156
1714595145.878334,-4984.6500000000015,23026.0,40214.44,11051162.0,-0.34066009521484375
1714595146.0193875,-5298.669999999998,22982.33,40261.91,11046338.0,-0.33984375
1714595146.1604407,-5588.8499999999985,22926.75,40305.41,11042178.0,-0.3390216827392578
1714595146.3014941,-5855.169999999998,22867.199999999997,40341.0,11038055.0,-0.33822059631347656
1714595146.4425476,-6097.6500000000015,22803.68,40372.64,11034563.0,-0.3374595642089844
1714595146.5836008,-6316.27,22736.190000000002,40400.33,11030903.0,-0.3366413116455078
1714595146.7246542,-6515.02,22668.699999999997,40424.07000000001,11027975.0,-0.3359508514404297
1714595146.8657076,-6693.9000000000015,22601.21,40447.78,11025174.0,-0.3352317810058594
1714595147.0067608,-6856.869999999999,22537.690000000002,40471.520000000004,11022324.0,-0.33452415466308594
1714595147.1478143,-7003.950000000001,22478.14,40491.28999999999,11019760.0,-0.3338642120361328
1714595147.2888677,-7135.119999999999,22422.559999999998,40511.07000000001,11016883.0,-0.3331336975097656
1714595147.429921,-7250.4000000000015,22370.949999999997,40526.89,11013646.0,-0.33238792419433594
1714595147.5709743,-7353.75,22327.28,40542.71000000001,11011463.0,-0.3317394256591797
1714595147.7120278,-7449.1500000000015,22287.58,40558.53,11008986.0,-0.3310966491699219
1714595147.853081,-7536.5999999999985,22251.85,40570.39,11006373.0,-0.33043479919433594
1714595147.9941344,-7616.0999999999985,22220.089999999997,40582.259999999995,11003847.0,-0.3297252655029297
1714595148.1351876,-7687.6500000000015,22192.300000000003,40594.130000000005,11001344.0,-0.3291187286376953
1714595148.276241,-7755.23,22168.480000000003,40602.03,10998948.0,-0.32846641540527344
1714595148.4172945,-7814.8499999999985,22144.660000000003,40609.94,10996456.0,-0.3277912139892578
1714595148.5583477,-7870.5,22124.809999999998,40613.899999999994,10994095.0,-0.32720184326171875
1714595148.6994011,-7922.169999999998,22104.96,40617.850000000006,10991320.0,-0.326507568359375
1714595148.8404546,-7969.869999999999,22085.11,40617.850000000006,10989341.0,-0.32590484619140625
1714595148.9815078,-8013.5999999999985,22069.230000000003,40617.850000000006,10986975.0,-0.32532501220703125
1714595149.1225612,-8053.3499999999985,22053.35,40617.850000000006,10984331.0,-0.32464599609375
1714595149.2636147,-8089.119999999999,22033.5,40613.899999999994,10981770.0,-0.324005126953125
1714595149.4046679,-8116.950000000001,22013.65,40609.94,10979660.0,-0.32341766357421875
1714595149.5457213,-8144.77,21993.800000000003,40605.990000000005,10976961.0,-0.32276153564453125
1714595149.6867747,-8164.6500000000015,21977.92,40602.03,10974665.0,-0.3221721649169922
1714595149.827828,-8180.549999999999,21958.07,40602.03,10972349.0,-0.32151222229003906
1714595149.9688814,-8192.48,21938.22,40602.03,10970146.0,-0.3209686279296875
1714595150.1099346,-8204.400000000001,21922.339999999997,40602.03,10967661.0,-0.3203411102294922
1714595150.250988,-8212.349999999999,21906.46,40602.03,10964886.0,-0.3196296691894531
1714595150.3920414,-8216.32,21890.58,40602.03,10962493.0,-0.3190727233886719
1714595150.5330946,-8216.32,21878.67,40605.990000000005,10960190.0,-0.3184471130371094
1714595150.674148,-8216.32,21870.730000000003,40609.94,10957478.0,-0.31777000427246094
1714595150.8152015,-8216.32,21862.79,40613.899999999994,10955356.0,-0.3172168731689453
1714595150.9562547,-8216.32,21858.82,40617.850000000006,10952979.0,-0.3165931701660156
1714595151.0973082,-8216.32,21854.85,40621.81,10950373.0,-0.31593894958496094
1714595151.2383616,-8216.32,21854.85,40625.770000000004,10948308.0,-0.31537628173828125
1714595151.3794148,-8216.32,21858.82,40629.72,10945372.0,-0.3146991729736328
1714595151.5204682,-8216.32,21862.79,40633.67,10942713.0,-0.31404685974121094
1714595151.6615217,-8220.3,21866.760000000002,40637.630000000005,10940633.0,-0.3134346008300781
1714595151.8025749,-8224.27,21874.699999999997,40637.630000000005,10937908.0,-0.3128166198730469
1714595151.9436283,-8232.23,21882.64,40637.630000000005,10935348.0,-0.3121776580810547
1714595152.0846817,-8240.169999999998,21886.61,40637.630000000005,10932786.0,-0.31148338317871094
1714595152.225735,-8248.119999999999,21886.61,40633.67,10930320.0,-0.3109130859375
1714595152.3667884,-8256.07,21890.58,40629.72,10927713.0,-0.31025123596191406
1714595152.5078416,-8264.02,21890.58,40625.770000000004,10925225.0,-0.3095836639404297
1714595152.648895,-8271.98,21890.58,40617.850000000006,10922766.0,-0.3090019226074219
1714595152.7899485,-8279.919999999998,21886.61,40609.94,10920313.0,-0.308349609375
1714595152.9310017,-8283.900000000001,21878.67,40605.990000000005,10917438.0,-0.30765533447265625
1714595153.072055,-8287.869999999999,21870.730000000003,40602.03,10915472.0,-0.30710792541503906
1714595153.2131085,-8287.869999999999,21858.82,40598.08,10912602.0,-0.3064231872558594
1714595153.3541617,-8287.869999999999,21850.879999999997,40594.130000000005,10909808.0,-0.3057403564453125
1714595153.4952152,-8283.900000000001,21838.97,40590.17,10907099.0,-0.3050689697265625
1714595153.6362686,-8275.95,21827.059999999998,40586.21000000001,10904522.0,-0.30443763732910156
1714595153.7773218,-8268.0,21819.120000000003,40586.21000000001,10901746.0,-0.3037528991699219
1714595153.9183753,-8260.05,21815.15,40586.21000000001,10899696.0,-0.3031272888183594
1714595154.0594287,-8252.099999999999,21811.18,40590.17,10896959.0,-0.3025054931640625
1714595154.200482,-8244.150000000001,21807.21,40594.130000000005,10893881.0,-0.30178070068359375
1714595154.3415353,-8236.2,21807.21,40598.08,10890892.0,-0.3010139465332031
1714595154.4825885,-8228.25,21811.18,40602.03,10888869.0,-0.3004779815673828
1714595154.623642,-8224.27,21819.120000000003,40605.990000000005,10886168.0,-0.2997875213623047
1714595154.7646954,-8220.3,21823.089999999997,40609.94,10883380.0,-0.299072265625
1714595154.9057486,-8220.3,21831.03,40613.899999999994,10881057.0,-0.29848289489746094
1714595155.046802,-8220.3,21838.97,40613.899999999994,10877947.0,-0.2977428436279297
1714595155.1878555,-8224.27,21846.910000000003,40613.899999999994,10874857.0,-0.2970085144042969
1714595155.3289087,-8232.23,21854.85,40613.899999999994,10872528.0,-0.29635047912597656
1714595155.4699621,-8240.169999999998,21858.82,40609.94,10869636.0,-0.29567527770996094
1714595155.6110156,-8248.119999999999,21862.79,40605.990000000005,10866973.0,-0.29500389099121094
1714595155.7520688,-8256.07,21862.79,40602.03,10864373.0,-0.2942829132080078
1714595155.8931222,-8264.02,21862.79,40594.130000000005,10861739.0,-0.2936592102050781
1714595156.0341756,-8268.0,21862.79,40590.17,10859132.0,-0.2929821014404297
1714595156.1752288,-8271.98,21858.82,40586.21000000001,10856295.0,-0.2922401428222656
1714595156.3162823,-8275.95,21850.879999999997,40578.3,10854091.0,-0.29167747497558594
1714595156.4573355,-8275.95,21842.940000000002,40574.350000000006,10851157.0,-0.2909507751464844
1714595156.598389,-8275.95,21835.0,40570.39,10848394.0,-0.29024696350097656
1714595156.7394423,-8271.98,21827.059999999998,40566.44,10845770.0,-0.28960227966308594
1714595156.8804955,-8268.0,21819.120000000003,40562.490000000005,10842883.0,-0.2888813018798828
1714595157.021549,-8264.02,21811.18,40562.490000000005,10839937.0,-0.28815460205078125
1714595157.1626024,-8256.07,21803.239999999998,40562.490000000005,10837497.0,-0.28750038146972656
1714595157.3036556,-8248.119999999999,21799.269999999997,40566.44,10834733.0,-0.2868156433105469
1714595157.444709,-8240.169999999998,21799.269999999997,40566.44,10832340.0,-0.2861804962158203
1714595157.5857625,-8232.23,21799.269999999997,40570.39,10829774.0,-0.28546142578125
1714595157.7268157,-8224.27,21799.269999999997,40574.350000000006,10826986.0,-0.2848224639892578
1714595157.8678691,-8220.3,21803.239999999998,40578.3,10823992.0,-0.28409385681152344
1714595158.0089226,-8216.32,21807.21,40582.259999999995,10821191.0,-0.2833423614501953
1714595158.1499758,-8216.32,21815.15,40586.21000000001,10818854.0,-0.28277015686035156
1714595158.2910292,-8216.32,21823.089999999997,40586.21000000001,10815818.0,-0.28201866149902344
1714595158.4320824,-8220.3,21831.03,40586.21000000001,10813018.0,-0.2812843322753906
1714595158.5731359,-8224.27,21838.97,40586.21000000001,10810557.0,-0.2806663513183594
1714595158.7141893,-8232.23,21846.910000000003,40586.21000000001,10807921.0,-0.27997779846191406
1714595158.8552425,-8240.169999999998,21850.879999999997,40582.259999999995,10804804.0,-0.2792224884033203
1714595158.996296,-8248.119999999999,21854.85,40578.3,10802540.0,-0.27860260009765625
1714595159.1373494,-8256.07,21854.85,40574.350000000006,10799963.0,-0.2779388427734375
1714595159.2784026,-8264.02,21854.85,40566.44,10796877.0,-0.2772026062011719
1714595159.419456,-8268.0,21850.879999999997,40562.490000000005,10794468.0,-0.276519775390625
1714595159.5605094,-8271.98,21842.940000000002,40554.57000000001,10791855.0,-0.2758922576904297
1714595159.7015626,-8275.95,21835.0,40550.619999999995,10788984.0,-0.2751941680908203
1714595159.842616,-8275.95,21827.059999999998,40546.66,10786273.0,-0.27445030212402344
1714595159.9836695,-8271.98,21815.15,40542.71000000001,10783742.0,-0.2738475799560547
1714595160.1247227,-8268.0,21807.21,40538.75,10781164.0,-0.2731666564941406
1714595160.2657762,-8260.05,21799.269999999997,40538.75,10778308.0,-0.2724189758300781
1714595160.4068296,-8252.099999999999,21795.300000000003,40538.75,10776163.0,-0.2718544006347656
1714595160.5478828,-8244.150000000001,21791.33,40538.75,10773346.0,-0.2711505889892578
1714595160.6889362,-8236.2,21787.36,40542.71000000001,10770497.0,-0.2704353332519531
1714595160.8299894,-8228.25,21787.36,40546.66,10768188.0,-0.26981353759765625
1714595160.9710429,-8220.3,21787.36,40550.619999999995,10765403.0,-0.26912879943847656
1714595161.1120963,-8212.349999999999,21795.300000000003,40554.57000000001,10762570.0,-0.2684345245361328
1714595161.2531495,-8208.369999999999,21803.239999999998,40558.53,10760077.0,-0.2677459716796875
1714595161.394203,-8208.369999999999,21807.21,40562.490000000005,10757528.0,-0.26712989807128906
1714595161.5352564,-8208.369999999999,21815.15,40566.44,10754954.0,-0.2664623260498047
1714595161.6763096,-8212.349999999999,21823.089999999997,40566.44,10751896.0,-0.2656822204589844
1714595161.817363,-8216.32,21835.0,40566.44,10749751.0,-0.2651348114013672
1714595161.9584165,-8224.27,21842.940000000002,40562.490000000005,10747126.0,-0.2644462585449219
1714595162.0994697,-8232.23,21846.910000000003,40558.53,10743886.0,-0.26366615295410156
1714595162.240523,-8240.169999999998,21846.910000000003,40554.57000000001,10741721.0,-0.26309776306152344
1714595162.3815765,-8248.119999999999,21846.910000000003,40550.619999999995,10738911.0,-0.2623882293701172
1714595162.5226297,-8256.07,21842.940000000002,40546.66,10736546.0,-0.26175880432128906
1714595162.6636832,-8260.05,21842.940000000002,40538.75,10734224.0,-0.2611217498779297
1714595162.8047364,-8264.02,21835.0,40534.8,10731403.0,-0.26044464111328125
1714595162.9457898,-8268.0,21827.059999999998,40530.850000000006,10728447.0,-0.25974464416503906
1714595163.0868433,-8268.0,21819.120000000003,40526.89,10726043.0,-0.25905799865722656
1714595163.2278965,-8264.02,21811.18,40522.92999999999,10723659.0,-0.25847434997558594
1714595163.36895,-8260.05,21803.239999999998,40518.979999999996,10721288.0,-0.2578315734863281
1714595163.5100033,-8252.099999999999,21795.300000000003,40518.979999999996,10718527.0,-0.2571144104003906
1714595163.6510565,-8244.150000000001,21787.36,40518.979999999996,10716294.0,-0.2565593719482422
1714595163.79211,-8236.2,21783.39,40518.979999999996,10713624.0,-0.2558784484863281
