,x,y,z,temp,temp_error
1708473012.5563347,-10724.55,-43161.84,3610.9100000000035,9968000.0,0.0
1708473012.6921537,-10839.82,-46302.11,4520.57,10157438.0,-0.11665916442871094
1708473012.827973,-10835.849999999999,-49370.92,5485.580000000002,10359129.0,-0.13924217224121094
1708473012.9637918,-10708.650000000001,-52304.75,6478.290000000001,10574119.0,-0.16103744506835938
1708473013.099611,-10458.23,-55036.11,7471.0,10744630.0,-0.18178367614746094
1708473013.23543,-10084.57,-57521.33,8428.099999999999,10808625.0,-0.19974708557128906
1708473013.371249,-9595.650000000001,-59728.65,9321.940000000002,10846420.0,-0.2137279510498047
1708473013.5070682,-9007.349999999999,-61650.130000000005,10136.660000000003,10864108.0,-0.22444915771484375
1708473013.642887,-8327.619999999999,-63289.740000000005,10860.43,10866366.0,-0.23263931274414062
1708473013.7787063,-7572.369999999999,-64671.31,11493.230000000003,10855400.0,-0.23824119567871094
1708473013.9145253,-6753.52,-65818.63,12042.980000000003,10835835.0,-0.24146270751953125
1708473014.0503442,-5879.02,-66755.55,12513.620000000003,10813772.0,-0.24349021911621094
1708473014.1861634,-4964.77,-67509.85,12917.029999999999,10791421.0,-0.24466323852539062
1708473014.3219824,-4014.75,-68113.29000000001,13261.120000000003,10769180.0,-0.24501609802246094
1708473014.4578016,-3036.9000000000015,-68581.76000000001,13557.739999999998,10749256.0,-0.2448902130126953
1708473014.5936205,-2039.1699999999983,-68935.08,13810.86,10732480.0,-0.24473953247070312
1708473014.7294397,-1029.5200000000004,-69189.16,14028.39,10718072.0,-0.24439430236816406
1708473014.8652587,-11.919999999998254,-69363.84,14218.230000000003,10705563.0,-0.24383926391601562
1708473015.0010777,1005.6699999999983,-69463.09,14384.330000000002,10696246.0,-0.24341392517089844
1708473015.1368968,2015.3199999999997,-69498.82,14530.669999999998,10689298.0,-0.2432117462158203
1708473015.2727158,3013.050000000003,-69482.94,14661.190000000002,10683395.0,-0.24287033081054688
1708473015.408535,3990.9000000000015,-69423.4,14779.830000000002,10678794.0,-0.24248695373535156
1708473015.544354,4944.9000000000015,-69324.15,14886.620000000003,10676935.0,-0.24246978759765625
1708473015.680173,5867.0999999999985,-69193.13,14985.5,10675821.0,-0.2425708770751953
1708473015.815992,6753.519999999997,-69034.33,15076.46,10675080.0,-0.2425823211669922
1708473015.951811,7600.199999999997,-68859.65,15159.510000000002,10674942.0,-0.24257659912109375
1708473016.0876303,8403.150000000001,-68665.12,15238.620000000003,10676661.0,-0.24292755126953125
1708473016.2234492,9158.400000000001,-68458.68,15309.800000000003,10678299.0,-0.2433185577392578
1708473016.3592682,9861.980000000003,-68248.26999999999,15377.04,10679925.0,-0.24362754821777344
1708473016.4950874,10509.900000000001,-68037.86,15440.32,10681585.0,-0.24387741088867188
1708473016.6309063,11106.150000000001,-67827.45,15495.690000000002,10684364.0,-0.24444198608398438
1708473016.7667255,11650.730000000003,-67621.01000000001,15547.099999999999,10686407.0,-0.2449188232421875
1708473016.9025445,12139.650000000001,-67422.51000000001,15594.57,10687819.0,-0.2452545166015625
1708473017.0383635,12580.870000000003,-67231.95,15638.07,10688866.0,-0.24547195434570312
1708473017.1741827,12974.400000000001,-67053.3,15677.620000000003,10690620.0,-0.24592971801757812
1708473017.3100016,13324.199999999997,-66886.56,15713.21,10691130.0,-0.2461986541748047
1708473017.4458208,13634.25,-66731.73000000001,15740.900000000001,10690929.0,-0.246307373046875
1708473017.5816398,13908.519999999997,-66588.81,15768.580000000002,10690693.0,-0.24633216857910156
1708473017.717459,14147.019999999997,-66457.8,15788.36,10690741.0,-0.24651718139648438
1708473017.853278,14353.730000000003,-66338.7,15808.14,10689729.0,-0.24651145935058594
1708473017.9890969,14536.580000000002,-66231.51000000001,15823.96,10688365.0,-0.24638938903808594
1708473018.124916,14695.580000000002,-66136.23000000001,15835.82,10686923.0,-0.24617385864257812
1708473018.260735,14834.699999999997,-66048.89,15843.730000000003,10685938.0,-0.24612998962402344
1708473018.3965542,14953.949999999997,-65973.45999999999,15851.64,10684299.0,-0.2459259033203125
1708473018.5323732,15057.300000000003,-65905.97,15855.589999999997,10682360.0,-0.24563980102539062
1708473018.6681921,15144.75,-65846.42,15859.550000000003,10680330.0,-0.24526214599609375
1708473018.8040113,15220.269999999997,-65794.81,15863.510000000002,10679003.0,-0.2450733184814453
1708473018.9398303,15287.849999999999,-65747.17,15863.510000000002,10676991.0,-0.2447338104248047
1708473019.0756495,15343.5,-65707.48000000001,15863.510000000002,10674834.0,-0.2443408966064453
1708473019.2114685,15391.199999999997,-65671.73999999999,15863.510000000002,10672826.0,-0.2438945770263672
1708473019.3472874,15434.919999999998,-65639.98000000001,15863.510000000002,10671266.0,-0.24362754821777344
1708473019.4831066,15470.699999999997,-65612.19,15863.510000000002,10669120.0,-0.24318885803222656
1708473019.6189256,15502.5,-65588.37,15863.510000000002,10666928.0,-0.2427501678466797
1708473019.7547448,15530.330000000002,-65564.55,15863.510000000002,10664842.0,-0.24223709106445312
1708473019.8905637,15554.169999999998,-65544.7,15863.510000000002,10663191.0,-0.24192428588867188
1708473020.0263827,15574.050000000003,-65528.83,15859.550000000003,10661087.0,-0.24144554138183594
1708473020.162202,15589.949999999997,-65512.94,15855.589999999997,10658689.0,-0.24092864990234375
1708473020.2980208,15601.870000000003,-65501.04,15855.589999999997,10656858.0,-0.2404460906982422
1708473020.43384,15613.800000000003,-65489.130000000005,15855.589999999997,10654961.0,-0.24005889892578125
1708473020.569659,15625.730000000003,-65481.18,15851.64,10652740.0,-0.23953628540039062
1708473020.705478,15633.669999999998,-65473.240000000005,15851.64,10650450.0,-0.23900604248046875
1708473020.8412971,15641.620000000003,-65465.31,15851.64,10648601.0,-0.2385120391845703
1708473020.977116,15649.580000000002,-65457.36,15847.690000000002,10646625.0,-0.23808860778808594
1708473021.1129353,15653.550000000003,-65449.42,15843.730000000003,10644499.0,-0.2375659942626953
1708473021.2487543,15657.519999999997,-65445.45,15843.730000000003,10642119.0,-0.23699569702148438
1708473021.3845735,15661.5,-65437.520000000004,15843.730000000003,10640198.0,-0.2364959716796875
1708473021.5203924,15665.480000000003,-65433.54,15839.769999999997,10638207.0,-0.23605728149414062
1708473021.6562114,15669.449999999997,-65429.57,15839.769999999997,10636201.0,-0.23553085327148438
1708473021.7920306,15673.419999999998,-65425.6,15839.769999999997,10633721.0,-0.2349376678466797
1708473021.9278495,15677.400000000001,-65421.64,15839.769999999997,10631945.0,-0.2344493865966797
1708473022.0636687,15677.400000000001,-65417.66,15835.82,10629950.0,-0.2339935302734375
1708473022.1994877,15677.400000000001,-65413.69,15831.870000000003,10627644.0,-0.233428955078125
1708473022.3353066,15677.400000000001,-65409.72,15831.870000000003,10625271.0,-0.23283767700195312
1708473022.4711258,15677.400000000001,-65405.75,15831.870000000003,10623375.0,-0.23232269287109375
1708473022.6069448,15677.400000000001,-65401.78,15827.910000000003,10621348.0,-0.2318706512451172
1708473022.742764,15677.400000000001,-65397.81,15827.910000000003,10619222.0,-0.2313232421875
1708473022.878583,15677.400000000001,-65397.81,15827.910000000003,10616665.0,-0.2306995391845703
1708473023.014402,15677.400000000001,-65393.84,15823.96,10614811.0,-0.23020553588867188
1708473023.150221,15677.400000000001,-65393.84,15820.0,10612710.0,-0.2297191619873047
1708473023.28604,15677.400000000001,-65389.880000000005,15820.0,10610462.0,-0.22915267944335938
1708473023.4218593,15677.400000000001,-65385.9,15820.0,10608031.0,-0.228546142578125
1708473023.5576782,15677.400000000001,-65381.93,15820.0,10606262.0,-0.22805023193359375
1708473023.6934972,15677.400000000001,-65381.93,15820.0,10604074.0,-0.2275371551513672
1708473023.8293164,15681.370000000003,-65377.97,15820.0,10601826.0,-0.2269763946533203
1708473023.9651353,15681.370000000003,-65377.97,15820.0,10599336.0,-0.22634124755859375
1708473024.1009545,15685.349999999999,-65374.0,15820.0,10597623.0,-0.2258892059326172
1708473024.2367735,15685.349999999999,-65370.020000000004,15820.0,10595333.0,-0.225341796875
1708473024.3725924,15685.349999999999,-65370.020000000004,15816.050000000003,10593114.0,-0.22478485107421875
1708473024.5084116,15685.349999999999,-65366.05,15816.050000000003,10590591.0,-0.22414016723632812
1708473024.6442306,15689.330000000002,-65362.08,15812.089999999997,10588954.0,-0.22370147705078125
1708473024.7800498,15689.330000000002,-65362.08,15812.089999999997,10586642.0,-0.22314071655273438
1708473024.9158688,15689.330000000002,-65358.11,15812.089999999997,10584171.0,-0.2225513458251953
1708473025.051688,15689.330000000002,-65358.11,15812.089999999997,10581828.0,-0.22191619873046875
1708473025.187507,15689.330000000002,-65354.15,15812.089999999997,10580106.0,-0.22147369384765625
1708473025.3233259,15689.330000000002,-65350.17,15812.089999999997,10577710.0,-0.2209033966064453
1708473025.459145,15689.330000000002,-65350.17,15808.14,10575423.0,-0.22033119201660156
1708473025.594964,15689.330000000002,-65350.17,15808.14,10573077.0,-0.219696044921875
1708473025.7307832,15689.330000000002,-65346.2,15804.18,10571239.0,-0.21924591064453125
1708473025.8666022,15693.300000000003,-65342.240000000005,15804.18,10568963.0,-0.21867752075195312
1708473026.0024211,15693.300000000003,-65338.259999999995,15804.18,10566576.0,-0.2180957794189453
1708473026.1382403,15693.300000000003,-65338.259999999995,15804.18,10564188.0,-0.2174549102783203
1708473026.2740593,15693.300000000003,-65334.29,15800.230000000003,10562330.0,-0.21698570251464844
1708473026.4098785,15693.300000000003,-65334.29,15800.230000000003,10560038.0,-0.21642112731933594
1708473026.5456975,15693.300000000003,-65330.33,15800.230000000003,10557606.0,-0.21583175659179688
1708473026.6815164,15693.300000000003,-65330.33,15796.269999999997,10555353.0,-0.21520233154296875
1708473026.8173356,15693.300000000003,-65330.33,15796.269999999997,10553571.0,-0.21476364135742188
1708473026.9531546,15693.300000000003,-65326.36,15796.269999999997,10551104.0,-0.21416091918945312
1708473027.0889738,15693.300000000003,-65326.36,15796.269999999997,10548664.0,-0.21356773376464844
1708473027.2247927,15697.269999999997,-65326.36,15796.269999999997,10546396.0,-0.2129383087158203
1708473027.3606117,15701.25,-65322.380000000005,15796.269999999997,10544590.0,-0.21250152587890625
1708473027.4964309,15701.25,-65318.41,15792.32,10542264.0,-0.2119140625
1708473027.6322498,15701.25,-65318.41,15792.32,10539919.0,-0.21134185791015625
1708473027.768069,15701.25,-65314.44,15788.36,10537690.0,-0.21071243286132812
1708473027.903888,15701.25,-65314.44,15788.36,10535876.0,-0.21027565002441406
1708473028.0397072,15701.25,-65310.479999999996,15788.36,10533570.0,-0.2096843719482422
1708473028.1755261,15701.25,-65310.479999999996,15784.410000000003,10531154.0,-0.2091083526611328
1708473028.311345,15701.25,-65310.479999999996,15784.410000000003,10528870.0,-0.20847320556640625
1708473028.4471643,15705.230000000003,-65306.5,15784.410000000003,10526933.0,-0.20801925659179688
1708473028.5829833,15705.230000000003,-65306.5,15784.410000000003,10524739.0,-0.2074413299560547
1708473028.7188025,15705.230000000003,-65306.5,15784.410000000003,10522214.0,-0.20683860778808594
1708473028.8546214,15705.230000000003,-65302.53,15780.449999999997,10520101.0,-0.20623779296875
1708473028.9904404,15705.230000000003,-65298.56,15776.5,10518254.0,-0.20579910278320312
1708473029.1262596,15705.230000000003,-65298.56,15776.5,10515875.0,-0.20519638061523438
1708473029.2620785,15705.230000000003,-65294.59,15776.5,10513329.0,-0.20456886291503906
1708473029.3978977,15705.230000000003,-65294.59,15772.54,10511562.0,-0.2040424346923828
1708473029.5337167,15705.230000000003,-65294.59,15772.54,10509481.0,-0.20355987548828125
1708473029.6695356,15709.199999999997,-65290.630000000005,15772.54,10507199.0,-0.20297622680664062
1708473029.8053548,15709.199999999997,-65290.630000000005,15768.580000000002,10504723.0,-0.2023487091064453
1708473029.9411738,15709.199999999997,-65290.630000000005,15768.580000000002,10503013.0,-0.20184707641601562
1708473030.076993,15709.199999999997,-65286.65,15768.580000000002,10500797.0,-0.20134925842285156
1708473030.212812,15709.199999999997,-65282.68,15768.580000000002,10498448.0,-0.2007579803466797
1708473030.348631,15709.199999999997,-65282.68,15764.629999999997,10496058.0,-0.20012664794921875
1708473030.48445,15709.199999999997,-65278.72,15764.629999999997,10494293.0,-0.19964981079101562
1708473030.620269,15709.199999999997,-65278.72,15764.629999999997,10492047.0,-0.1991119384765625
1708473030.7560883,15713.169999999998,-65278.72,15760.669999999998,10489893.0,-0.19855880737304688
1708473030.8919072,15717.150000000001,-65274.740000000005,15760.669999999998,10487386.0,-0.19791221618652344
1708473031.0277262,15717.150000000001,-65270.770000000004,15756.720000000001,10485801.0,-0.19745445251464844
1708473031.1635454,15717.150000000001,-65270.770000000004,15756.720000000001,10483644.0,-0.1969451904296875
1708473031.2993643,15717.150000000001,-65270.770000000004,15756.720000000001,10481296.0,-0.19637107849121094
1708473031.4351835,15717.150000000001,-65266.81,15756.720000000001,10478871.0,-0.1957244873046875
1708473031.5710025,15717.150000000001,-65266.81,15756.720000000001,10477287.0,-0.19530868530273438
1708473031.7068217,15717.150000000001,-65262.84,15752.760000000002,10474944.0,-0.194732666015625
1708473031.8426406,15717.150000000001,-65262.84,15752.760000000002,10472677.0,-0.19417381286621094
1708473031.9784596,15717.150000000001,-65262.84,15748.809999999998,10470467.0,-0.19355201721191406
1708473032.1142788,15717.150000000001,-65258.86,15748.809999999998,10468756.0,-0.19314002990722656
1708473032.2500978,15717.150000000001,-65258.86,15748.809999999998,10466579.0,-0.19257736206054688
1708473032.385917,15717.150000000001,-65258.86,15748.809999999998,10464304.0,-0.1920185089111328
1708473032.521736,15717.150000000001,-65258.86,15744.849999999999,10462168.0,-0.19141769409179688
1708473032.6575549,15717.150000000001,-65254.89,15744.849999999999,10460323.0,-0.19099044799804688
1708473032.793374,15717.150000000001,-65254.89,15744.849999999999,10458134.0,-0.19042205810546875
1708473032.929193,15721.120000000003,-65250.92,15740.900000000001,10455731.0,-0.18984031677246094
1708473033.0650122,15721.120000000003,-65250.92,15740.900000000001,10454019.0,-0.1893157958984375
1708473033.2008312,15721.120000000003,-65250.92,15740.900000000001,10452024.0,-0.1888580322265625
1708473033.3366501,15721.120000000003,-65246.96,15736.940000000002,10449814.0,-0.1882915496826172
1708473033.4724693,15721.120000000003,-65246.96,15736.940000000002,10447399.0,-0.18769264221191406
1708473033.6082883,15721.120000000003,-65246.96,15736.940000000002,10445798.0,-0.1872081756591797
1708473033.7441075,15721.120000000003,-65242.990000000005,15736.940000000002,10443714.0,-0.186737060546875
1708473033.8799264,15721.120000000003,-65242.990000000005,15732.989999999998,10441674.0,-0.1861896514892578
1708473034.0157454,15725.099999999999,-65239.009999999995,15732.989999999998,10439350.0,-0.18558883666992188
1708473034.1515646,15725.099999999999,-65235.04,15729.029999999999,10437758.0,-0.18514442443847656
1708473034.2873836,15725.099999999999,-65235.04,15729.029999999999,10435691.0,-0.18465423583984375
1708473034.4232028,15725.099999999999,-65235.04,15729.029999999999,10433499.0,-0.18410491943359375
1708473034.5590217,15725.099999999999,-65231.08,15729.029999999999,10431028.0,-0.18347740173339844
1708473034.694841,15725.099999999999,-65231.08,15725.080000000002,10429586.0,-0.1830577850341797
1708473034.8306599,15725.099999999999,-65231.08,15725.080000000002,10427431.0,-0.1825580596923828
1708473034.9664788,15725.099999999999,-65231.08,15725.080000000002,10425296.0,-0.18201446533203125
1708473035.102298,15725.099999999999,-65231.08,15725.080000000002,10422969.0,-0.1813983917236328
1708473035.238117,15729.080000000002,-65227.1,15721.120000000003,10421423.0,-0.18099021911621094
1708473035.3739362,15729.080000000002,-65223.130000000005,15721.120000000003,10419393.0,-0.18048095703125
1708473035.5097551,15729.080000000002,-65223.130000000005,15721.120000000003,10417367.0,-0.1799640655517578
1708473035.645574,15733.050000000003,-65219.16,15717.169999999998,10415100.0,-0.17935562133789062
1708473035.7813933,15733.050000000003,-65219.16,15717.169999999998,10413479.0,-0.17894554138183594
1708473035.9172122,15733.050000000003,-65219.16,15717.169999999998,10411480.0,-0.17844200134277344
1708473036.0530314,15733.050000000003,-65219.16,15713.21,10409099.0,-0.17787933349609375
1708473036.1888504,15737.019999999997,-65215.2,15713.21,10407160.0,-0.17731475830078125
1708473036.3246694,15737.019999999997,-65215.2,15713.21,10405657.0,-0.1769428253173828
1708473036.4604886,15737.019999999997,-65215.2,15713.21,10403553.0,-0.17640304565429688
1708473036.5963075,15737.019999999997,-65211.22,15709.260000000002,10401307.0,-0.17586898803710938
1708473036.7321267,15737.019999999997,-65211.22,15709.260000000002,10399598.0,-0.1753387451171875
1708473036.8679457,15741.0,-65207.25,15705.300000000003,10397844.0,-0.1749439239501953
1708473037.0037646,15741.0,-65203.28,15705.300000000003,10395879.0,-0.1744232177734375
1708473037.1395838,15741.0,-65203.28,15705.300000000003,10393587.0,-0.173858642578125
1708473037.2754028,15741.0,-65203.28,15701.349999999999,10392029.0,-0.17338943481445312
1708473037.411222,15741.0,-65203.28,15701.349999999999,10390146.0,-0.1729602813720703
1708473037.547041,15744.980000000003,-65203.28,15701.349999999999,10388109.0,-0.17243385314941406
1708473037.68286,15744.980000000003,-65199.32,15697.39,10385826.0,-0.17186737060546875
1708473037.818679,15744.980000000003,-65199.32,15697.39,10384357.0,-0.17143821716308594
1708473037.954498,15744.980000000003,-65199.32,15697.39,10382465.0,-0.1709918975830078
1708473038.0903172,15744.980000000003,-65199.32,15697.39,10380465.0,-0.17048263549804688
1708473038.2261362,15744.980000000003,-65195.34,15693.440000000002,10378162.0,-0.169891357421875
1708473038.3619554,15744.980000000003,-65195.34,15693.440000000002,10376763.0,-0.1694965362548828
1708473038.4977744,15748.949999999997,-65191.369999999995,15693.440000000002,10374831.0,-0.16903114318847656
1708473038.6335933,15748.949999999997,-65191.369999999995,15689.480000000003,10372914.0,-0.16853904724121094
1708473038.7694125,15748.949999999997,-65187.4,15689.480000000003,10370763.0,-0.16796112060546875
1708473038.9052315,15748.949999999997,-65187.4,15689.480000000003,10369341.0,-0.16759109497070312
1708473039.0410507,15748.949999999997,-65187.4,15685.529999999999,10367284.0,-0.16709518432617188
1708473039.1768696,15748.949999999997,-65183.43,15685.529999999999,10365345.0,-0.16660690307617188
1708473039.3126886,15748.949999999997,-65183.43,15685.529999999999,10363226.0,-0.1660480499267578
1708473039.4485078,15752.919999999998,-65179.47,15685.529999999999,10361931.0,-0.16568946838378906
1708473039.5843267,15752.919999999998,-65179.47,15681.580000000002,10359928.0,-0.1651897430419922
1708473039.720146,15752.919999999998,-65175.490000000005,15681.580000000002,10357782.0,-0.1646747589111328
1708473039.855965,15752.919999999998,-65175.490000000005,15681.580000000002,10356003.0,-0.1641521453857422
1708473039.9917839,15752.919999999998,-65175.490000000005,15677.620000000003,10354480.0,-0.16379737854003906
1708473040.127603,15752.919999999998,-65171.520000000004,15677.620000000003,10352519.0,-0.16329193115234375
1708473040.263422,15752.919999999998,-65171.520000000004,15677.620000000003,10350496.0,-0.16278839111328125
1708473040.3992412,15752.919999999998,-65171.520000000004,15677.620000000003,10348786.0,-0.1622791290283203
1708473040.5350602,15752.919999999998,-65171.520000000004,15673.660000000003,10347297.0,-0.1619396209716797
