,x,y,z,temp,temp_error
1708473287.9262197,13435.5,40791.75,-953.1500000000015,9644018.0,0.0
1708473288.0602262,14063.550000000003,43257.130000000005,-1142.9900000000016,9764797.0,-0.23650550842285156
1708473288.1942325,14651.849999999999,45674.850000000006,-1360.5200000000004,9899423.0,-0.24707794189453125
1708473288.328239,15192.449999999997,48025.100000000006,-1609.6800000000003,10053272.0,-0.258087158203125
1708473288.4622455,15681.370000000003,50284.03,-1890.4900000000016,10229644.0,-0.27005958557128906
1708473288.5962517,16110.669999999998,52427.83,-2198.9799999999996,10425207.0,-0.2816123962402344
1708473288.7302582,16476.370000000003,54428.71000000001,-2531.2000000000007,10642482.0,-0.2921104431152344
1708473288.8642645,16778.480000000003,56270.78,-2887.1500000000015,10887001.0,-0.30223846435546875
1708473288.998271,17016.980000000003,57938.19,-3254.959999999999,11102673.0,-0.31176185607910156
1708473289.1322775,17195.85,59419.0,-3630.6899999999987,11124273.0,-0.31935882568359375
1708473289.2662838,17319.08,60713.21000000001,-4002.459999999999,11136773.0,-0.32534027099609375
1708473289.4002903,17390.620000000003,61828.78,-4370.27,11142778.0,-0.33032989501953125
1708473289.5342968,17418.449999999997,62773.64,-4722.27,11141031.0,-0.3339805603027344
1708473289.668303,17406.519999999997,63563.67,-5054.490000000002,11133246.0,-0.3361225128173828
1708473289.8023095,17366.78,64218.72,-5366.93,11122800.0,-0.3374195098876953
1708473289.9363158,17303.18,64754.67,-5655.6500000000015,11111487.0,-0.3383216857910156
1708473290.0703223,17219.699999999997,65191.380000000005,-5924.59,11098325.0,-0.33846282958984375
1708473290.2043288,17120.32,65540.74,-6169.799999999999,11085495.0,-0.3381671905517578
1708473290.338335,17013.0,65818.64,-6391.279999999999,11073593.0,-0.33766937255859375
1708473290.4723415,16901.699999999997,66036.99,-6589.029999999999,11063094.0,-0.33716773986816406
1708473290.606348,16786.42,66207.69,-6767.0,11052683.0,-0.33633995056152344
1708473290.7403543,16671.15,66338.71,-6929.16,11043609.0,-0.33548545837402344
1708473290.8743608,16555.870000000003,66433.99,-7071.540000000001,11035791.0,-0.33460235595703125
1708473291.008367,16440.6,66501.48,-7198.0999999999985,11028995.0,-0.3338203430175781
1708473291.1423736,16329.300000000003,66549.12,-7308.84,11022521.0,-0.33287811279296875
1708473291.27638,16221.980000000003,66576.91,-7407.709999999999,11016889.0,-0.3320045471191406
1708473291.4103863,16122.599999999999,66592.78,-7494.73,11012134.0,-0.3311481475830078
1708473291.5443928,16027.199999999997,66596.76,-7573.82,11007938.0,-0.33040809631347656
1708473291.6783993,15935.769999999997,66592.78,-7641.060000000001,11004087.0,-0.3295860290527344
1708473291.8124056,15848.330000000002,66584.85,-7700.380000000001,11000417.0,-0.32880210876464844
1708473291.946412,15768.830000000002,66568.96,-7751.799999999999,10997204.0,-0.32806968688964844
1708473292.0804183,15693.300000000003,66553.09,-7795.299999999999,10994302.0,-0.3273773193359375
1708473292.2144248,15625.730000000003,66533.24,-7834.8499999999985,10991696.0,-0.32669830322265625
1708473292.3484313,15562.120000000003,66509.42,-7870.450000000001,10988982.0,-0.32599449157714844
1708473292.4824376,15502.5,66485.6,-7898.130000000001,10987081.0,-0.3254413604736328
1708473292.616444,15446.849999999999,66461.78,-7925.82,10984625.0,-0.3247833251953125
1708473292.7504506,15395.169999999998,66437.96,-7949.549999999999,10982618.0,-0.3242225646972656
1708473292.8844569,15347.480000000003,66414.14,-7969.32,10980678.0,-0.3236274719238281
1708473293.0184634,15307.730000000003,66390.32,-7985.139999999999,10978936.0,-0.3231372833251953
1708473293.1524696,15267.980000000003,66370.46,-8000.959999999999,10977105.0,-0.32258033752441406
1708473293.2864761,15232.199999999997,66350.61,-8012.830000000002,10975487.0,-0.3220977783203125
1708473293.4204826,15200.400000000001,66330.77,-8024.689999999999,10973835.0,-0.3215789794921875
1708473293.554489,15172.580000000002,66310.92,-8032.5999999999985,10972041.0,-0.3211193084716797
1708473293.6884954,15144.75,66291.07,-8040.509999999998,10970549.0,-0.320648193359375
1708473293.822502,15120.900000000001,66275.18,-8048.419999999998,10968725.0,-0.3201484680175781
1708473293.9565082,15101.019999999997,66259.31,-8052.380000000001,10967483.0,-0.3197479248046875
1708473294.0905147,15081.150000000001,66243.42,-8056.34,10965898.0,-0.3193016052246094
1708473294.224521,15065.25,66227.55,-8060.290000000001,10964500.0,-0.31888771057128906
1708473294.3585274,15049.349999999999,66215.64,-8064.25,10962898.0,-0.31842994689941406
1708473294.492534,15033.449999999997,66203.73,-8068.200000000001,10961894.0,-0.3181133270263672
1708473294.6265402,15021.519999999997,66191.82,-8072.16,10960307.0,-0.3176689147949219
1708473294.7605467,15009.599999999999,66179.91,-8072.16,10958967.0,-0.31730079650878906
1708473294.8945532,14997.669999999998,66168.0,-8072.16,10957506.0,-0.3168659210205078
1708473295.0285594,14989.730000000003,66156.09,-8076.110000000001,10956235.0,-0.3165473937988281
1708473295.162566,14981.769999999997,66148.14,-8076.110000000001,10954742.0,-0.3161334991455078
1708473295.2965722,14973.830000000002,66140.21,-8076.110000000001,10953310.0,-0.3157634735107422
1708473295.4305787,14965.870000000003,66132.27,-8076.110000000001,10951874.0,-0.3153495788574219
1708473295.5645852,14961.900000000001,66124.32,-8076.110000000001,10950521.0,-0.3150196075439453
1708473295.6985915,14957.919999999998,66116.39,-8076.110000000001,10949111.0,-0.31462669372558594
1708473295.832598,14953.949999999997,66108.45,-8076.110000000001,10947538.0,-0.3142280578613281
1708473295.9666045,14949.980000000003,66100.5,-8076.110000000001,10946377.0,-0.3138923645019531
1708473296.1006107,14946.0,66092.57,-8076.110000000001,10944723.0,-0.3135051727294922
1708473296.2346172,14942.019999999997,66084.63,-8076.110000000001,10943289.0,-0.31313133239746094
1708473296.3686235,14938.050000000003,66080.65,-8076.110000000001,10941659.0,-0.3127021789550781
1708473296.50263,14934.080000000002,66072.72,-8076.110000000001,10940286.0,-0.3123760223388672
1708473296.6366365,14930.099999999999,66068.75,-8076.110000000001,10938622.0,-0.31195640563964844
1708473296.7706428,14930.099999999999,66060.81,-8080.07,10937071.0,-0.31158447265625
1708473296.9046493,14930.099999999999,66056.84,-8080.07,10935558.0,-0.3111591339111328
1708473297.0386558,14930.099999999999,66052.86,-8080.07,10934035.0,-0.3108177185058594
1708473297.172662,14930.099999999999,66048.89,-8080.07,10932360.0,-0.31038856506347656
1708473297.3066685,14930.099999999999,66044.92,-8080.07,10930482.0,-0.3099536895751953
1708473297.4406748,14930.099999999999,66036.99,-8080.07,10929028.0,-0.30956459045410156
1708473297.5746813,14930.099999999999,66033.01,-8080.07,10927376.0,-0.3091716766357422
1708473297.7086878,14930.099999999999,66029.05,-8080.07,10925731.0,-0.3087615966796875
1708473297.842694,14930.099999999999,66025.08,-8084.02,10923722.0,-0.3082752227783203
1708473297.9767005,14930.099999999999,66021.1,-8084.02,10922340.0,-0.3079204559326172
1708473298.110707,14930.099999999999,66017.14,-8084.02,10920447.0,-0.30747032165527344
1708473298.2447133,14930.099999999999,66013.17,-8084.02,10918477.0,-0.3070182800292969
1708473298.3787198,14930.099999999999,66009.2,-8084.02,10916641.0,-0.3065338134765625
1708473298.512726,14930.099999999999,66005.23,-8084.02,10914847.0,-0.3061389923095703
1708473298.6467326,14930.099999999999,66001.25,-8084.02,10912932.0,-0.30565643310546875
1708473298.780739,14930.099999999999,65997.28,-8087.98,10910783.0,-0.3051624298095703
1708473298.9147453,14930.099999999999,65993.32,-8087.98,10909055.0,-0.3046913146972656
1708473299.0487518,14930.099999999999,65989.35,-8087.98,10906982.0,-0.3042430877685547
1708473299.1827583,14930.099999999999,65985.38,-8087.98,10905012.0,-0.3037567138671875
1708473299.3167646,14930.099999999999,65981.41,-8087.98,10902758.0,-0.3032093048095703
1708473299.450771,14930.099999999999,65977.44,-8087.98,10900918.0,-0.3027629852294922
1708473299.5847774,14930.099999999999,65969.5,-8087.98,10898791.0,-0.30224037170410156
1708473299.7187839,14930.099999999999,65965.53,-8087.98,10896684.0,-0.3017444610595703
1708473299.8527904,14930.099999999999,65961.56,-8087.98,10894373.0,-0.3011627197265625
1708473299.9867966,14930.099999999999,65957.59,-8087.98,10892459.0,-0.3007240295410156
1708473300.120803,14930.099999999999,65953.61,-8087.98,10890157.0,-0.3001537322998047
1708473300.2548096,14930.099999999999,65949.64,-8087.98,10887783.0,-0.2996063232421875
1708473300.3888159,14930.099999999999,65945.67,-8087.98,10885792.0,-0.2990703582763672
1708473300.5228224,14930.099999999999,65941.71,-8087.98,10883459.0,-0.29854393005371094
1708473300.6568286,14930.099999999999,65937.74,-8087.98,10881316.0,-0.2980022430419922
1708473300.7908351,14930.099999999999,65933.77,-8087.98,10878792.0,-0.29740142822265625
1708473300.9248416,14930.099999999999,65929.8,-8091.93,10876680.0,-0.29685020446777344
1708473301.058848,14930.099999999999,65925.82,-8091.93,10874209.0,-0.2962818145751953
1708473301.1928544,14930.099999999999,65921.85,-8091.93,10871864.0,-0.29572105407714844
1708473301.326861,14930.099999999999,65917.89,-8091.93,10869350.0,-0.29508209228515625
1708473301.4608672,14930.099999999999,65913.92,-8091.93,10867202.0,-0.2945728302001953
1708473301.5948737,14930.099999999999,65909.95,-8091.93,10864699.0,-0.2939472198486328
1708473301.72888,14930.099999999999,65905.97,-8091.93,10862049.0,-0.2933368682861328
1708473301.8628864,14930.099999999999,65902.0,-8095.880000000001,10859815.0,-0.29273414611816406
1708473301.996893,14930.099999999999,65898.03,-8095.880000000001,10857144.0,-0.29213523864746094
1708473302.1308992,14930.099999999999,65894.07,-8095.880000000001,10854709.0,-0.2915153503417969
1708473302.2649057,14930.099999999999,65890.1,-8095.880000000001,10852034.0,-0.2908496856689453
1708473302.3989122,14930.099999999999,65886.13,-8095.880000000001,10849836.0,-0.29029083251953125
1708473302.5329185,14930.099999999999,65882.16,-8095.880000000001,10847137.0,-0.28964996337890625
1708473302.666925,14930.099999999999,65878.18,-8095.880000000001,10844640.0,-0.2890338897705078
1708473302.8009315,14930.099999999999,65878.18,-8095.880000000001,10841867.0,-0.2883262634277344
1708473302.9349377,14930.099999999999,65874.21,-8095.880000000001,10839528.0,-0.2877693176269531
1708473303.0689442,14930.099999999999,65874.21,-8095.880000000001,10836824.0,-0.2870922088623047
1708473303.2029505,14930.099999999999,65870.25,-8095.880000000001,10834103.0,-0.2864418029785156
1708473303.336957,14930.099999999999,65866.28,-8099.84,10831598.0,-0.28577232360839844
1708473303.4709635,14930.099999999999,65862.31,-8099.84,10828933.0,-0.2851581573486328
1708473303.6049697,14930.099999999999,65858.33,-8099.84,10826260.0,-0.28447723388671875
1708473303.7389762,14930.099999999999,65854.36,-8099.84,10823536.0,-0.2837963104248047
1708473303.8729827,14930.099999999999,65854.36,-8099.84,10821160.0,-0.2831859588623047
1708473304.006989,14930.099999999999,65854.36,-8099.84,10818253.0,-0.28249359130859375
1708473304.1409955,14930.099999999999,65850.4,-8099.84,10815498.0,-0.28182411193847656
1708473304.2750018,14930.099999999999,65846.42,-8099.84,10812678.0,-0.28108787536621094
1708473304.4090083,14930.099999999999,65842.46,-8099.84,10810162.0,-0.28048133850097656
1708473304.5430148,14930.099999999999,65842.46,-8099.84,10807266.0,-0.27976036071777344
1708473304.677021,14930.099999999999,65842.46,-8099.84,10804475.0,-0.2790870666503906
1708473304.8110275,14930.099999999999,65838.49,-8099.84,10801681.0,-0.2783527374267578
1708473304.945034,14930.099999999999,65834.52,-8099.84,10799051.0,-0.2777233123779297
1708473305.0790403,14930.099999999999,65834.52,-8099.84,10796359.0,-0.2770214080810547
1708473305.2130468,14930.099999999999,65830.55,-8099.84,10793262.0,-0.2762794494628906
1708473305.347053,14930.099999999999,65826.57,-8099.84,10790788.0,-0.27561378479003906
1708473305.4810596,14930.099999999999,65822.6,-8099.84,10787811.0,-0.27492523193359375
1708473305.615066,14930.099999999999,65818.64,-8099.84,10785161.0,-0.2742328643798828
1708473305.7490723,14930.099999999999,65818.64,-8103.790000000001,10782287.0,-0.2734851837158203
1708473305.8830788,14930.099999999999,65818.64,-8103.790000000001,10779855.0,-0.27286720275878906
1708473306.0170853,14930.099999999999,65814.67,-8103.790000000001,10776818.0,-0.2721214294433594
1708473306.1510916,14930.099999999999,65810.69,-8103.790000000001,10773935.0,-0.2714271545410156
1708473306.285098,14930.099999999999,65806.73,-8103.790000000001,10771032.0,-0.270660400390625
1708473306.4191043,14930.099999999999,65806.73,-8103.790000000001,10768399.0,-0.2700233459472656
1708473306.5531108,14930.099999999999,65802.76,-8103.790000000001,10765673.0,-0.2693004608154297
1708473306.6871173,14930.099999999999,65798.78,-8103.790000000001,10762585.0,-0.2685585021972656
1708473306.8211236,14930.099999999999,65798.78,-8103.790000000001,10760092.0,-0.2678813934326172
1708473306.95513,14930.099999999999,65794.82,-8103.790000000001,10757191.0,-0.26717567443847656
1708473307.0891366,14930.099999999999,65790.85,-8103.790000000001,10754261.0,-0.2664508819580078
1708473307.2231429,14930.099999999999,65790.85,-8103.790000000001,10751126.0,-0.26566505432128906
1708473307.3571494,14930.099999999999,65786.88,-8103.790000000001,10748572.0,-0.2650146484375
1708473307.4911556,14934.080000000002,65786.88,-8103.790000000001,10745583.0,-0.2642669677734375
1708473307.6251621,14934.080000000002,65786.88,-8103.790000000001,10742785.0,-0.2635688781738281
1708473307.7591686,14934.080000000002,65786.88,-8103.790000000001,10739938.0,-0.2628040313720703
1708473307.893175,14934.080000000002,65782.91,-8103.790000000001,10737338.0,-0.26216888427734375
1708473308.0271814,14934.080000000002,65778.93,-8107.75,10734461.0,-0.26142311096191406
1708473308.161188,14934.080000000002,65774.96,-8107.75,10731584.0,-0.2607135772705078
1708473308.2951941,14934.080000000002,65774.96,-8107.75,10728829.0,-0.25997352600097656
1708473308.4292006,14934.080000000002,65774.96,-8107.75,10725907.0,-0.25927734375
1708473308.563207,14934.080000000002,65771.0,-8107.75,10723143.0,-0.2585601806640625
1708473308.6972134,14934.080000000002,65767.03,-8107.75,10720132.0,-0.2578125
1708473308.83122,14934.080000000002,65767.03,-8107.75,10717504.0,-0.2571144104003906
1708473308.9652262,14934.080000000002,65763.06,-8107.75,10714587.0,-0.2563972473144531
1708473309.0992327,14934.080000000002,65759.09,-8107.75,10711665.0,-0.25566673278808594
1708473309.2332392,14934.080000000002,65755.12,-8107.75,10708669.0,-0.25489234924316406
1708473309.3672454,14934.080000000002,65755.12,-8107.75,10706135.0,-0.25425148010253906
1708473309.501252,14934.080000000002,65751.14,-8107.75,10703113.0,-0.25348854064941406
1708473309.6352582,14934.080000000002,65751.14,-8107.75,10700148.0,-0.2527637481689453
1708473309.7692647,14934.080000000002,65747.17,-8107.75,10697389.0,-0.2520103454589844
1708473309.9032712,14934.080000000002,65747.17,-8107.75,10694621.0,-0.2513446807861328
1708473310.0372775,14934.080000000002,65743.21,-8107.75,10691772.0,-0.2505989074707031
1708473310.171284,14934.080000000002,65739.24,-8111.700000000001,10688808.0,-0.2498626708984375
1708473310.3052905,14934.080000000002,65735.27,-8111.700000000001,10686224.0,-0.24916458129882812
1708473310.4392967,14934.080000000002,65735.27,-8111.700000000001,10683253.0,-0.2484416961669922
1708473310.5733032,14934.080000000002,65731.29,-8111.700000000001,10680543.0,-0.24774551391601562
1708473310.7073095,14934.080000000002,65731.29,-8111.700000000001,10677469.0,-0.24695587158203125
1708473310.841316,14934.080000000002,65727.32,-8111.700000000001,10674949.0,-0.24631690979003906
1708473310.9753225,14934.080000000002,65723.35,-8111.700000000001,10671976.0,-0.2455596923828125
1708473311.1093287,14938.050000000003,65723.35,-8115.66,10669175.0,-0.2448577880859375
1708473311.2433352,14938.050000000003,65719.39,-8115.66,10666513.0,-0.24411964416503906
1708473311.3773417,14938.050000000003,65719.39,-8115.66,10663764.0,-0.2434673309326172
1708473311.511348,14938.050000000003,65719.39,-8115.66,10660847.0,-0.24271392822265625
1708473311.6453545,14938.050000000003,65715.42,-8115.66,10657826.0,-0.2419605255126953
1708473311.7793608,14938.050000000003,65715.42,-8115.66,10655343.0,-0.24127960205078125
1708473311.9133673,14938.050000000003,65711.45,-8115.66,10652478.0,-0.2405853271484375
1708473312.0473738,14938.050000000003,65711.45,-8115.66,10649773.0,-0.2398834228515625
1708473312.18138,14938.050000000003,65707.48,-8115.66,10646760.0,-0.23910903930664062
1708473312.3153865,14938.050000000003,65703.5,-8115.66,10644348.0,-0.23848533630371094
1708473312.449393,14938.050000000003,65703.5,-8115.66,10641399.0,-0.23773765563964844
1708473312.5833993,14938.050000000003,65703.5,-8115.66,10638745.0,-0.23706436157226562
1708473312.7174058,14938.050000000003,65703.5,-8115.66,10635922.0,-0.23630714416503906
1708473312.851412,14938.050000000003,65699.53,-8115.66,10633361.0,-0.2356853485107422
1708473312.9854186,14938.050000000003,65695.57,-8119.610000000001,10630666.0,-0.23496246337890625
1708473313.119425,14938.050000000003,65695.57,-8119.610000000001,10627605.0,-0.23423004150390625
1708473313.2534313,14938.050000000003,65695.57,-8119.610000000001,10625147.0,-0.23354530334472656
1708473313.3874378,14938.050000000003,65691.6,-8119.610000000001,10622551.0,-0.23290252685546875
1708473313.5214443,14938.050000000003,65687.63,-8119.610000000001,10619821.0,-0.23219680786132812
1708473313.6554506,14938.050000000003,65687.63,-8119.610000000001,10616844.0,-0.23143577575683594
1708473313.789457,14938.050000000003,65687.63,-8119.610000000001,10614449.0,-0.2308025360107422
1708473313.9234633,14938.050000000003,65687.63,-8119.610000000001,10611517.0,-0.23009109497070312
1708473314.0574698,14938.050000000003,65683.65,-8119.610000000001,10608919.0,-0.22942543029785156
1708473314.1914763,14938.050000000003,65683.65,-8119.610000000001,10606022.0,-0.22866439819335938
1708473314.3254826,14938.050000000003,65683.65,-8119.610000000001,10603572.0,-0.228057861328125
1708473314.459489,14938.050000000003,65679.68,-8119.610000000001,10600843.0,-0.22733688354492188
1708473314.5934956,14938.050000000003,65679.68,-8119.610000000001,10598066.0,-0.2266559600830078
1708473314.7275019,14938.050000000003,65679.68,-8119.610000000001,10595526.0,-0.2259521484375
1708473314.8615084,14938.050000000003,65679.68,-8119.610000000001,10592915.0,-0.2253284454345703
1708473314.9955146,14938.050000000003,65675.72,-8119.610000000001,10590291.0,-0.22463417053222656
1708473315.1295211,14938.050000000003,65675.72,-8119.610000000001,10587419.0,-0.22390174865722656
1708473315.2635276,14938.050000000003,65675.72,-8119.610000000001,10585148.0,-0.22328758239746094
1708473315.397534,14938.050000000003,65671.75,-8119.610000000001,10582342.0,-0.22259902954101562
1708473315.5315404,14938.050000000003,65671.75,-8119.610000000001,10579708.0,-0.22193527221679688
1708473315.665547,14938.050000000003,65667.78,-8119.610000000001,10576814.0,-0.22118377685546875
1708473315.7995532,14938.050000000003,65667.78,-8119.610000000001,10574443.0,-0.22058868408203125
1708473315.9335597,14938.050000000003,65667.78,-8119.610000000001,10571913.0,-0.21990585327148438
1708473316.067566,14938.050000000003,65663.81,-8119.610000000001,10569211.0,-0.21924209594726562
1708473316.2015724,14938.050000000003,65663.81,-8119.610000000001,10566737.0,-0.21855926513671875
1708473316.335579,14938.050000000003,65659.84,-8119.610000000001,10564011.0,-0.2179126739501953
1708473316.4695852,14938.050000000003,65659.84,-8119.610000000001,10561567.0,-0.2172527313232422
1708473316.6035917,14938.050000000003,65655.86,-8119.610000000001,10558763.0,-0.2165546417236328
1708473316.7375982,14938.050000000003,65655.86,-8119.610000000001,10556508.0,-0.2159423828125
1708473316.8716044,14938.050000000003,65651.89,-8119.610000000001,10553887.0,-0.21527862548828125
