,x,y,z,temp,temp_error
1708472436.2155027,-11535.45,-48930.25,3990.5899999999965,10673971.0,-0.19728469848632812
1708472436.3513777,-11475.82,-51788.65,4959.57,10846375.0,-0.21673011779785156
1708472436.4872527,-11300.919999999998,-54452.520000000004,5936.449999999997,10913558.0,-0.2337646484375
1708472436.6231277,-11010.75,-56882.16,6897.519999999997,10964569.0,-0.24854660034179688
1708472436.7590027,-10613.25,-59053.75,7815.080000000002,10999330.0,-0.2611846923828125
1708472436.8948777,-10120.349999999999,-60967.29,8673.32,11017389.0,-0.2713432312011719
1708472437.0307527,-9543.98,-62626.75,9460.36,11019296.0,-0.2785320281982422
1708472437.1666276,-8896.05,-64048.009999999995,10172.260000000002,11011112.0,-0.2834053039550781
1708472437.3025026,-8184.52,-65246.96,10805.059999999998,10996890.0,-0.286773681640625
1708472437.4383776,-7421.32,-66251.36,11362.71,10979344.0,-0.2889881134033203
1708472437.5742526,-6614.4000000000015,-67081.09,11857.089999999997,10959563.0,-0.2901287078857422
1708472437.7101276,-5771.700000000001,-67759.95999999999,12288.190000000002,10939628.0,-0.290374755859375
1708472437.8460026,-4901.169999999998,-68303.85,12667.870000000003,10921755.0,-0.29034423828125
1708472437.9818776,-4010.7700000000004,-68732.61,13000.080000000002,10905767.0,-0.2901039123535156
1708472438.1177523,-3104.470000000001,-69062.12,13288.800000000003,10891626.0,-0.28964805603027344
1708472438.2536273,-2190.220000000001,-69304.29000000001,13545.870000000003,10878959.0,-0.2889442443847656
1708472438.3895023,-1268.0200000000004,-69471.04000000001,13771.309999999998,10869203.0,-0.2883319854736328
1708472438.5253773,-345.8199999999997,-69570.28,13973.010000000002,10861544.0,-0.28790855407714844
1708472438.6612523,568.4199999999983,-69613.95,14150.989999999998,10855128.0,-0.28742218017578125
1708472438.7971272,1474.7300000000032,-69613.95,14313.14,10849966.0,-0.28693580627441406
1708472438.9330022,2365.1200000000026,-69570.28,14459.480000000003,10845866.0,-0.2864093780517578
1708472439.0688772,3239.6200000000026,-69490.88,14590.0,10844019.0,-0.2862548828125
1708472439.2047522,4090.269999999997,-69379.73000000001,14708.64,10842866.0,-0.28617095947265625
1708472439.3406272,4913.0999999999985,-69244.73999999999,14819.39,10842073.0,-0.2860679626464844
1708472439.4765022,5708.0999999999985,-69093.88,14922.21,10841473.0,-0.28594017028808594
1708472439.6123772,6471.300000000003,-68923.17,15017.14,10841807.0,-0.2858848571777344
1708472439.7482522,7198.730000000003,-68740.55,15100.190000000002,10843261.0,-0.2860984802246094
1708472439.8841271,7886.4000000000015,-68549.98999999999,15179.29,10844693.0,-0.28638267517089844
1708472440.0200021,8534.32,-68351.48999999999,15254.440000000002,10846038.0,-0.2865715026855469
1708472440.155877,9142.5,-68152.98999999999,15321.669999999998,10847137.0,-0.28670692443847656
1708472440.291752,9710.919999999998,-67954.48999999999,15384.949999999997,10848893.0,-0.2869434356689453
1708472440.427627,10235.620000000003,-67759.95999999999,15440.32,10850966.0,-0.28737449645996094
1708472440.563502,10720.57,-67569.41,15491.730000000003,10852460.0,-0.2876930236816406
1708472440.699377,11165.769999999997,-67382.81,15539.190000000002,10853429.0,-0.28791046142578125
1708472440.835252,11571.230000000003,-67208.13,15582.699999999997,10854023.0,-0.2880229949951172
1708472440.971127,11940.900000000001,-67041.4,15618.300000000003,10855257.0,-0.2882843017578125
1708472441.107002,12274.800000000003,-66882.59,15649.940000000002,10855942.0,-0.2885589599609375
1708472441.242877,12576.900000000001,-66731.73000000001,15677.620000000003,10856052.0,-0.2886638641357422
1708472441.378752,12847.199999999997,-66592.78,15705.300000000003,10855681.0,-0.2886848449707031
1708472441.514627,13089.669999999998,-66465.73999999999,15729.029999999999,10855267.0,-0.2886486053466797
1708472441.650502,13308.300000000003,-66346.64,15748.809999999998,10855123.0,-0.2887229919433594
1708472441.7863767,13503.07,-66239.45,15764.629999999997,10854407.0,-0.2887287139892578
1708472441.9222517,13674.0,-66140.2,15776.5,10853306.0,-0.2886028289794922
1708472442.0581267,13829.019999999997,-66048.89,15788.36,10852116.0,-0.2884387969970703
1708472442.1940017,13964.169999999998,-65965.51999999999,15796.269999999997,10850883.0,-0.2882213592529297
1708472442.3298767,14083.419999999998,-65890.09,15804.18,10849973.0,-0.28814697265625
1708472442.4657516,14190.75,-65822.6,15808.14,10848572.0,-0.2879371643066406
1708472442.6016266,14286.150000000001,-65763.05,15812.089999999997,10846976.0,-0.28766632080078125
1708472442.7375016,14369.620000000003,-65711.44,15816.050000000003,10845125.0,-0.2873115539550781
1708472442.8733766,14445.150000000001,-65663.8,15816.050000000003,10843772.0,-0.2870464324951172
1708472443.0092516,14508.75,-65620.13,15816.050000000003,10842272.0,-0.28681373596191406
1708472443.1451266,14564.400000000001,-65580.44,15816.050000000003,10840594.0,-0.2864665985107422
1708472443.2810016,14616.080000000002,-65548.67,15816.050000000003,10838688.0,-0.28609466552734375
1708472443.4168766,14659.800000000003,-65516.91,15816.050000000003,10836889.0,-0.28568077087402344
1708472443.5527515,14699.550000000003,-65489.130000000005,15816.050000000003,10835590.0,-0.2854156494140625
1708472443.6886265,14735.330000000002,-65465.31,15816.050000000003,10833815.0,-0.2850532531738281
1708472443.8245015,14767.120000000003,-65445.45,15812.089999999997,10831825.0,-0.28463172912597656
1708472443.9603765,14794.949999999997,-65425.6,15808.14,10829685.0,-0.2841510772705078
1708472444.0962515,14818.800000000003,-65409.72,15808.14,10828217.0,-0.28377342224121094
1708472444.2321265,14838.669999999998,-65393.84,15804.18,10826517.0,-0.2834339141845703
1708472444.3680015,14854.580000000002,-65381.93,15804.18,10824615.0,-0.2829856872558594
1708472444.5038764,14870.480000000003,-65370.020000000004,15800.230000000003,10822500.0,-0.28252220153808594
1708472444.6397514,14886.370000000003,-65358.11,15800.230000000003,10820474.0,-0.28200531005859375
1708472444.7756264,14898.300000000003,-65350.17,15796.269999999997,10819106.0,-0.2816810607910156
1708472444.9115014,14910.230000000003,-65342.240000000005,15796.269999999997,10817122.0,-0.2812328338623047
1708472445.0473764,14918.169999999998,-65334.29,15796.269999999997,10815125.0,-0.28075408935546875
1708472445.1832514,14926.120000000003,-65326.36,15792.32,10812863.0,-0.2802276611328125
1708472445.3191264,14934.080000000002,-65318.41,15792.32,10811038.0,-0.2797393798828125
1708472445.455001,14942.019999999997,-65314.44,15792.32,10809288.0,-0.27936363220214844
1708472445.590876,14946.0,-65310.479999999996,15788.36,10807179.0,-0.2788562774658203
1708472445.726751,14949.980000000003,-65306.5,15788.36,10805103.0,-0.2783641815185547
1708472445.862626,14953.949999999997,-65302.53,15788.36,10802823.0,-0.27779197692871094
1708472445.998501,14957.919999999998,-65298.56,15784.410000000003,10801266.0,-0.27738380432128906
1708472446.134376,14961.900000000001,-65294.59,15784.410000000003,10799157.0,-0.27691078186035156
1708472446.270251,14965.870000000003,-65290.630000000005,15780.449999999997,10797021.0,-0.2763805389404297
1708472446.406126,14969.849999999999,-65290.630000000005,15780.449999999997,10794737.0,-0.27584075927734375
1708472446.542001,14973.830000000002,-65286.65,15780.449999999997,10792733.0,-0.27529335021972656
1708472446.677876,14977.800000000003,-65282.68,15780.449999999997,10790965.0,-0.2748851776123047
1708472446.813751,14981.769999999997,-65278.72,15776.5,10788717.0,-0.27434349060058594
1708472446.949626,14981.769999999997,-65274.740000000005,15776.5,10786493.0,-0.27380943298339844
1708472447.085501,14981.769999999997,-65274.740000000005,15776.5,10784198.0,-0.27321815490722656
1708472447.221376,14985.75,-65274.740000000005,15776.5,10782252.0,-0.2727069854736328
1708472447.357251,14985.75,-65274.740000000005,15772.54,10780098.0,-0.27223777770996094
1708472447.493126,14985.75,-65274.740000000005,15772.54,10777913.0,-0.2716789245605469
1708472447.629001,14989.730000000003,-65270.770000000004,15768.580000000002,10775416.0,-0.27109336853027344
1708472447.764876,14993.699999999997,-65266.81,15768.580000000002,10773247.0,-0.2705039978027344
1708472447.9007509,14993.699999999997,-65266.81,15768.580000000002,10771480.0,-0.27007293701171875
1708472448.0366259,14997.669999999998,-65266.81,15768.580000000002,10769124.0,-0.26950645446777344
1708472448.1725008,14997.669999999998,-65262.84,15764.629999999997,10766765.0,-0.26892852783203125
1708472448.3083758,14997.669999999998,-65262.84,15764.629999999997,10764227.0,-0.2683086395263672
1708472448.4442508,15001.650000000001,-65262.84,15764.629999999997,10762268.0,-0.26776885986328125
1708472448.5801258,15005.620000000003,-65258.86,15764.629999999997,10760058.0,-0.2672710418701172
1708472448.7160008,15005.620000000003,-65258.86,15764.629999999997,10757798.0,-0.26668739318847656
1708472448.8518758,15005.620000000003,-65254.89,15760.669999999998,10755398.0,-0.26611900329589844
1708472448.9877508,15005.620000000003,-65250.92,15760.669999999998,10752945.0,-0.26546287536621094
1708472449.1236255,15005.620000000003,-65250.92,15756.720000000001,10751155.0,-0.2649822235107422
1708472449.2595005,15005.620000000003,-65250.92,15756.720000000001,10748894.0,-0.26445579528808594
1708472449.3953755,15005.620000000003,-65250.92,15756.720000000001,10746427.0,-0.26384735107421875
1708472449.5312505,15009.599999999999,-65246.96,15752.760000000002,10743751.0,-0.2631988525390625
1708472449.6671255,15009.599999999999,-65246.96,15752.760000000002,10741497.0,-0.26259422302246094
1708472449.8030005,15009.599999999999,-65246.96,15752.760000000002,10739539.0,-0.2621345520019531
1708472449.9388754,15009.599999999999,-65246.96,15752.760000000002,10737078.0,-0.2615203857421875
1708472450.0747504,15009.599999999999,-65242.990000000005,15748.809999999998,10734583.0,-0.2609138488769531
1708472450.2106254,15013.580000000002,-65242.990000000005,15748.809999999998,10732060.0,-0.2602519989013672
1708472450.3465004,15017.550000000003,-65242.990000000005,15748.809999999998,10730174.0,-0.2597503662109375
1708472450.4823754,15021.519999999997,-65239.009999999995,15748.809999999998,10727722.0,-0.25917816162109375
1708472450.6182504,15021.519999999997,-65235.04,15744.849999999999,10725382.0,-0.2585735321044922
1708472450.7541254,15021.519999999997,-65235.04,15744.849999999999,10722823.0,-0.25794219970703125
1708472450.8900003,15021.519999999997,-65231.08,15740.900000000001,10720541.0,-0.2573280334472656
1708472451.0258753,15021.519999999997,-65231.08,15740.900000000001,10718540.0,-0.2568378448486328
1708472451.1617503,15021.519999999997,-65231.08,15740.900000000001,10716071.0,-0.2562255859375
1708472451.2976253,15025.5,-65227.1,15736.940000000002,10713463.0,-0.25560569763183594
1708472451.4335003,15025.5,-65227.1,15736.940000000002,10711046.0,-0.2549400329589844
1708472451.5693753,15025.5,-65227.1,15732.989999999998,10709053.0,-0.2544288635253906
1708472451.7052503,15025.5,-65227.1,15732.989999999998,10706579.0,-0.2538433074951172
1708472451.8411252,15029.480000000003,-65223.130000000005,15732.989999999998,10704079.0,-0.2532157897949219
1708472451.9770002,15029.480000000003,-65223.130000000005,15729.029999999999,10701540.0,-0.25258827209472656
1708472452.1128752,15029.480000000003,-65219.16,15729.029999999999,10699359.0,-0.2519702911376953
1708472452.2487502,15029.480000000003,-65219.16,15729.029999999999,10697258.0,-0.25147056579589844
1708472452.3846252,15029.480000000003,-65219.16,15729.029999999999,10694562.0,-0.2508125305175781
1708472452.5205002,15029.480000000003,-65219.16,15725.080000000002,10691972.0,-0.2501869201660156
1708472452.656375,15029.480000000003,-65215.2,15725.080000000002,10689410.0,-0.24950408935546875
1708472452.79225,15033.449999999997,-65211.22,15725.080000000002,10687543.0,-0.24900436401367188
1708472452.928125,15033.449999999997,-65211.22,15721.120000000003,10685113.0,-0.24842071533203125
1708472453.064,15033.449999999997,-65211.22,15721.120000000003,10682723.0,-0.24779701232910156
1708472453.1998749,15033.449999999997,-65211.22,15721.120000000003,10679991.0,-0.24712753295898438
1708472453.3357499,15037.419999999998,-65207.25,15717.169999999998,10677744.0,-0.24651145935058594
1708472453.4716249,15037.419999999998,-65207.25,15717.169999999998,10675672.0,-0.24601173400878906
1708472453.6074998,15037.419999999998,-65207.25,15717.169999999998,10673191.0,-0.2453784942626953
1708472453.7433748,15041.400000000001,-65203.28,15713.21,10670662.0,-0.24476242065429688
1708472453.8792498,15041.400000000001,-65203.28,15713.21,10668068.0,-0.2440814971923828
1708472454.0151248,15041.400000000001,-65203.28,15709.260000000002,10666249.0,-0.2435760498046875
1708472454.1509998,15041.400000000001,-65203.28,15709.260000000002,10663756.0,-0.24298667907714844
1708472454.2868748,15041.400000000001,-65203.28,15709.260000000002,10661305.0,-0.2423572540283203
1708472454.4227498,15041.400000000001,-65199.32,15705.300000000003,10658566.0,-0.24169158935546875
1708472454.5586247,15045.370000000003,-65199.32,15705.300000000003,10656330.0,-0.24106788635253906
1708472454.6944997,15045.370000000003,-65199.32,15701.349999999999,10654269.0,-0.240570068359375
1708472454.8303747,15045.370000000003,-65199.32,15701.349999999999,10651883.0,-0.239959716796875
1708472454.9662497,15045.370000000003,-65195.34,15701.349999999999,10649343.0,-0.2393360137939453
1708472455.1021247,15045.370000000003,-65195.34,15701.349999999999,10646646.0,-0.23863983154296875
1708472455.2379997,15049.349999999999,-65195.34,15697.39,10644723.0,-0.23810386657714844
1708472455.3738747,15053.330000000002,-65191.369999999995,15697.39,10642431.0,-0.23755836486816406
1708472455.5097497,15053.330000000002,-65191.369999999995,15697.39,10640046.0,-0.2369365692138672
1708472455.6456246,15053.330000000002,-65191.369999999995,15693.440000000002,10637541.0,-0.23632049560546875
1708472455.7814996,15053.330000000002,-65191.369999999995,15693.440000000002,10635166.0,-0.23566055297851562
1708472455.9173746,15053.330000000002,-65191.369999999995,15693.440000000002,10633197.0,-0.23516273498535156
1708472456.0532496,15053.330000000002,-65187.4,15689.480000000003,10630688.0,-0.23455810546875
1708472456.1891246,15053.330000000002,-65187.4,15689.480000000003,10628301.0,-0.23394775390625
1708472456.3249993,15053.330000000002,-65187.4,15689.480000000003,10625643.0,-0.2332782745361328
1708472456.4608743,15057.300000000003,-65183.43,15685.529999999999,10623586.0,-0.2326946258544922
1708472456.5967493,15057.300000000003,-65183.43,15685.529999999999,10621378.0,-0.23218536376953125
1708472456.7326243,15061.269999999997,-65179.47,15685.529999999999,10618966.0,-0.2315654754638672
1708472456.8684993,15061.269999999997,-65179.47,15685.529999999999,10616505.0,-0.23095703125
1708472457.0043743,15061.269999999997,-65175.490000000005,15685.529999999999,10613978.0,-0.23027992248535156
1708472457.1402493,15061.269999999997,-65175.490000000005,15685.529999999999,10612110.0,-0.22978591918945312
1708472457.2761242,15061.269999999997,-65175.490000000005,15685.529999999999,10609691.0,-0.2292041778564453
1708472457.4119992,15065.25,-65171.520000000004,15681.580000000002,10607331.0,-0.22859573364257812
1708472457.5478742,15065.25,-65171.520000000004,15681.580000000002,10604848.0,-0.2279796600341797
1708472457.6837492,15065.25,-65167.56,15677.620000000003,10602730.0,-0.22735977172851562
1708472457.8196242,15065.25,-65167.56,15677.620000000003,10600731.0,-0.22689056396484375
1708472457.9554992,15065.25,-65167.56,15673.660000000003,10598341.0,-0.22627830505371094
1708472458.0913742,15069.230000000003,-65163.58,15673.660000000003,10595917.0,-0.225677490234375
1708472458.2272491,15069.230000000003,-65163.58,15673.660000000003,10593391.0,-0.2250080108642578
1708472458.3631241,15069.230000000003,-65163.58,15669.71,10591598.0,-0.2245159149169922
1708472458.498999,15069.230000000003,-65159.61,15669.71,10589221.0,-0.22395896911621094
1708472458.634874,15069.230000000003,-65159.61,15665.760000000002,10586924.0,-0.223358154296875
1708472458.770749,15069.230000000003,-65159.61,15665.760000000002,10584393.0,-0.22273826599121094
1708472458.906624,15069.230000000003,-65159.61,15665.760000000002,10582195.0,-0.22211647033691406
1708472459.042499,15069.230000000003,-65159.61,15661.800000000003,10580273.0,-0.221649169921875
1708472459.178374,15073.199999999997,-65159.61,15661.800000000003,10577910.0,-0.2210521697998047
1708472459.314249,15073.199999999997,-65159.61,15661.800000000003,10575520.0,-0.220458984375
1708472459.450124,15073.199999999997,-65155.65,15661.800000000003,10572988.0,-0.2198009490966797
1708472459.585999,15073.199999999997,-65155.65,15661.800000000003,10571096.0,-0.21927642822265625
1708472459.721874,15077.169999999998,-65151.68,15657.839999999997,10569019.0,-0.21877670288085938
1708472459.857749,15077.169999999998,-65151.68,15657.839999999997,10566835.0,-0.21819305419921875
1708472459.9936237,15077.169999999998,-65151.68,15653.89,10564319.0,-0.21758460998535156
1708472460.1294987,15077.169999999998,-65151.68,15653.89,10562199.0,-0.21697235107421875
1708472460.2653737,15077.169999999998,-65151.68,15653.89,10560389.0,-0.2165241241455078
1708472460.4012487,15081.150000000001,-65147.7,15653.89,10558021.0,-0.2159442901611328
1708472460.5371237,15085.120000000003,-65147.7,15649.940000000002,10555747.0,-0.21536636352539062
1708472460.6729987,15085.120000000003,-65143.729999999996,15649.940000000002,10553184.0,-0.21471786499023438
1708472460.8088737,15085.120000000003,-65143.729999999996,15645.980000000003,10551443.0,-0.21421241760253906
1708472460.9447486,15085.120000000003,-65143.729999999996,15645.980000000003,10549337.0,-0.21372413635253906
1708472461.0806236,15085.120000000003,-65143.729999999996,15645.980000000003,10547055.0,-0.21313095092773438
1708472461.2164986,15085.120000000003,-65143.729999999996,15645.980000000003,10544640.0,-0.21254920959472656
1708472461.3523736,15085.120000000003,-65143.729999999996,15642.019999999997,10542361.0,-0.21191024780273438
1708472461.4882486,15089.099999999999,-65139.759999999995,15638.07,10540671.0,-0.21146202087402344
1708472461.6241236,15089.099999999999,-65139.759999999995,15638.07,10538476.0,-0.2109241485595703
1708472461.7599986,15089.099999999999,-65139.759999999995,15634.120000000003,10536266.0,-0.21036148071289062
1708472461.8958735,15089.099999999999,-65139.759999999995,15634.120000000003,10533810.0,-0.20975112915039062
1708472462.0317485,15089.099999999999,-65139.759999999995,15634.120000000003,10531798.0,-0.20918655395507812
1708472462.1676235,15089.099999999999,-65139.759999999995,15634.120000000003,10529815.0,-0.2087249755859375
1708472462.3034985,15089.099999999999,-65139.759999999995,15634.120000000003,10527577.0,-0.2081451416015625
1708472462.4393735,15093.080000000002,-65135.8,15634.120000000003,10525212.0,-0.2075672149658203
1708472462.5752485,15093.080000000002,-65131.83,15634.120000000003,10522846.0,-0.20693016052246094
1708472462.7111235,15093.080000000002,-65131.83,15630.160000000003,10521407.0,-0.2065143585205078
1708472462.8469985,15093.080000000002,-65131.83,15630.160000000003,10519218.0,-0.20598602294921875
1708472462.9828734,15093.080000000002,-65131.83,15630.160000000003,10517093.0,-0.20543289184570312
1708472463.1187484,15093.080000000002,-65131.83,15626.21,10514647.0,-0.20482826232910156
1708472463.2546234,15093.080000000002,-65131.83,15626.21,10512775.0,-0.20427703857421875
1708472463.3904984,15097.050000000003,-65131.83,15626.21,10510914.0,-0.2038440704345703
1708472463.5263734,15097.050000000003,-65131.83,15626.21,10508754.0,-0.20328903198242188
1708472463.6622481,15097.050000000003,-65127.85,15622.25,10506442.0,-0.202728271484375
1708472463.7981231,15097.050000000003,-65127.85,15622.25,10504135.0,-0.20211029052734375
1708472463.933998,15097.050000000003,-65123.880000000005,15622.25,10502567.0,-0.20166969299316406
1708472464.069873,15097.050000000003,-65123.880000000005,15618.300000000003,10500523.0,-0.20118141174316406
