,x,y,z,temp,temp_error
1708471836.4945412,-12608.7,-37119.5,-3978.7299999999996,11209745.0,0.0
1708471836.6305547,-13002.23,-39291.09,-3670.2400000000016,11239026.0,-0.3626823425292969
1708471836.7665682,-13352.02,-41438.86,-3306.380000000001,11267524.0,-0.36919593811035156
1708471836.9025817,-13654.119999999999,-43546.93,-2887.1500000000015,11295806.0,-0.3758087158203125
1708471837.0385954,-13908.52,-45611.33,-2416.5,11323473.0,-0.38244056701660156
1708471837.174609,-14115.23,-47620.15,-1902.3499999999985,11349651.0,-0.3889808654785156
1708471837.3106225,-14274.23,-49565.45,-1344.7000000000007,11374687.0,-0.3953742980957031
1708471837.446636,-14385.52,-51439.29,-755.4000000000015,11397881.0,-0.40157318115234375
1708471837.5826495,-14453.099999999999,-53233.729999999996,-134.47000000000116,11418081.0,-0.40729331970214844
1708471837.718663,-14472.98,-54944.8,506.23999999999796,11435914.0,-0.41269493103027344
1708471837.8546765,-14449.119999999999,-56568.53,1162.7699999999968,11450653.0,-0.4174976348876953
1708471837.9906902,-14385.52,-58104.92,1827.2099999999991,11462638.0,-0.4217643737792969
1708471838.1267037,-14278.2,-59553.97,2491.6500000000015,11472634.0,-0.42559814453125
1708471838.2627172,-14131.119999999999,-60911.72,3152.1399999999994,11480185.0,-0.428955078125
1708471838.3987308,-13948.27,-62182.11,3804.709999999999,11486349.0,-0.4319744110107422
1708471838.5347443,-13729.650000000001,-63369.15,4445.419999999998,11491042.0,-0.43466758728027344
1708471838.6707578,-13479.23,-64472.81,5070.309999999998,11494138.0,-0.4369678497314453
1708471838.8067713,-13197.0,-65493.09,5679.379999999997,11496362.0,-0.43900108337402344
1708471838.942785,-12886.95,-66437.95,6268.669999999998,11497365.0,-0.4407215118408203
1708471839.0787985,-12549.07,-67307.38,6834.239999999998,11497100.0,-0.4420928955078125
1708471839.214812,-12187.349999999999,-68105.35,7380.029999999999,11495950.0,-0.44316673278808594
1708471839.3508255,-11801.77,-68839.8,7902.0899999999965,11494102.0,-0.4439525604248047
1708471839.486839,-11396.32,-69510.73000000001,8400.419999999998,11491864.0,-0.4445381164550781
1708471839.6228526,-10971.0,-70122.12,8878.980000000003,11489172.0,-0.4448966979980469
1708471839.758866,-10525.8,-70677.91,9333.800000000003,11486630.0,-0.4451751708984375
1708471839.8948798,-10064.7,-71182.1,9764.89,11484142.0,-0.4453697204589844
1708471840.0308933,-9587.7,-71634.68,10176.21,11481482.0,-0.44545745849609375
1708471840.1669068,-9094.8,-72039.62,10563.800000000003,11479201.0,-0.4455146789550781
1708471840.3029203,-8589.98,-72400.89,10931.620000000003,11476743.0,-0.44548797607421875
1708471840.4389338,-8073.23,-72722.47,11283.620000000003,11474375.0,-0.44536781311035156
1708471840.5749474,-7548.52,-73004.33,11615.830000000002,11472151.0,-0.44524574279785156
1708471840.7109609,-7015.869999999999,-73250.48000000001,11932.230000000003,11469641.0,-0.44501686096191406
1708471840.8469746,-6475.27,-73464.85,12228.86,11467279.0,-0.4447460174560547
1708471840.982988,-5926.720000000001,-73647.48000000001,12513.620000000003,11465198.0,-0.4444541931152344
1708471841.1190016,-5374.200000000001,-73802.3,12782.559999999998,11462880.0,-0.4441070556640625
1708471841.2550151,-4817.700000000001,-73929.34,13035.68,11461389.0,-0.44384193420410156
1708471841.3910286,-4257.220000000001,-74028.59,13276.940000000002,11459600.0,-0.44353485107421875
1708471841.5270422,-3692.7700000000004,-74104.01000000001,13506.32,11458510.0,-0.4433307647705078
1708471841.6630557,-3128.3199999999997,-74155.63,13723.849999999999,11457480.0,-0.4431324005126953
1708471841.7990694,-2563.869999999999,-74187.4,13929.510000000002,11456283.0,-0.4428997039794922
1708471841.935083,-1999.4199999999983,-74195.33,14123.300000000003,11455483.0,-0.4427032470703125
1708471842.0710964,-1438.9500000000007,-74187.4,14309.190000000002,11454463.0,-0.4424781799316406
1708471842.20711,-878.4700000000012,-74163.57,14487.160000000003,11453513.0,-0.4422416687011719
1708471842.3431234,-321.97000000000116,-74123.87,14653.269999999997,11452813.0,-0.4420490264892578
1708471842.479137,230.5500000000029,-74068.29000000001,14811.480000000003,11451426.0,-0.44173622131347656
1708471842.6151505,775.1200000000026,-74000.8,14961.760000000002,11451149.0,-0.4415721893310547
1708471842.7511642,1315.7300000000032,-73921.41,15108.099999999999,11450525.0,-0.4413719177246094
1708471842.8871777,1848.3700000000026,-73830.09,15246.519999999997,11450103.0,-0.4412040710449219
1708471843.0231912,2377.050000000003,-73726.87,15377.04,11450457.0,-0.44116783142089844
1708471843.1592047,2893.800000000003,-73615.72,15499.64,11450108.0,-0.44106101989746094
1708471843.2952182,3402.5999999999985,-73496.61,15618.300000000003,11450279.0,-0.4410228729248047
1708471843.4312317,3903.449999999997,-73369.57,15732.989999999998,11450348.0,-0.4410133361816406
1708471843.5672452,4392.370000000003,-73234.59,15839.769999999997,11450227.0,-0.4409523010253906
1708471843.703259,4869.370000000003,-73095.64,15942.599999999999,11450524.0,-0.4409446716308594
1708471843.8392725,5334.449999999997,-72952.73000000001,16041.480000000003,11450258.0,-0.44086647033691406
1708471843.975286,5787.5999999999985,-72805.83,16132.440000000002,11450375.0,-0.4408302307128906
1708471844.1112995,6228.82,-72654.97,16219.46,11450496.0,-0.4408130645751953
1708471844.247313,6658.120000000003,-72500.15,16302.510000000002,11450295.0,-0.4407329559326172
1708471844.3833265,7075.5,-72345.31,16381.61,11450979.0,-0.44077301025390625
1708471844.5193403,7476.980000000003,-72190.48000000001,16456.760000000002,11451154.0,-0.44077491760253906
1708471844.6553538,7866.519999999997,-72031.68,16527.940000000002,11451673.0,-0.4408378601074219
1708471844.7913673,8240.169999999998,-71872.88,16595.18,11452263.0,-0.440948486328125
1708471844.9273808,8601.900000000001,-71714.08,16658.46,11452282.0,-0.4409770965576172
1708471845.0633943,8947.730000000003,-71559.25,16717.78,11452922.0,-0.44108009338378906
1708471845.1994078,9281.620000000003,-71404.42,16773.160000000003,11452570.0,-0.4410591125488281
1708471845.3354213,9599.620000000003,-71249.59,16824.57,11452498.0,-0.44104576110839844
1708471845.471435,9901.730000000003,-71098.73000000001,16872.03,11452459.0,-0.44104766845703125
1708471845.6074486,10191.900000000001,-70951.84,16915.54,11451581.0,-0.44092369079589844
1708471845.743462,10466.169999999998,-70808.92,16955.08,11451669.0,-0.4409141540527344
1708471845.8794756,10728.519999999997,-70669.97,16994.64,11450866.0,-0.44078636169433594
1708471846.015489,10978.949999999997,-70534.98999999999,17030.230000000003,11450438.0,-0.44069671630859375
1708471846.1515026,11217.449999999997,-70403.98000000001,17061.870000000003,11450153.0,-0.440643310546875
1708471846.287516,11440.050000000003,-70276.94,17089.550000000003,11449381.0,-0.4405403137207031
1708471846.4235299,11654.699999999997,-70153.87,17117.239999999998,11449312.0,-0.440521240234375
1708471846.5595434,11857.419999999998,-70034.76999999999,17140.97,11448225.0,-0.4403667449951172
1708471846.6955569,12048.230000000003,-69919.64,17164.699999999997,11447671.0,-0.4402503967285156
1708471846.8315704,12227.099999999999,-69808.48000000001,17184.480000000003,11447017.0,-0.44011688232421875
1708471846.967584,12398.019999999997,-69701.29000000001,17204.25,11445910.0,-0.43991661071777344
1708471847.1035974,12557.019999999997,-69598.08,17220.07,11445451.0,-0.4397926330566406
1708471847.239611,12708.07,-69498.82,17235.89,11444424.0,-0.4395885467529297
1708471847.3756247,12847.199999999997,-69403.54000000001,17247.760000000002,11443539.0,-0.43938636779785156
1708471847.5116382,12978.370000000003,-69316.2,17259.620000000003,11442852.0,-0.43921470642089844
1708471847.6476517,13101.599999999999,-69232.83,17267.53,11441905.0,-0.4390106201171875
1708471847.7836652,13216.870000000003,-69153.44,17275.440000000002,11441467.0,-0.4388847351074219
1708471847.9196787,13328.169999999998,-69078.0,17283.35,11440520.0,-0.43869972229003906
1708471848.0556922,13431.519999999997,-69002.57,17287.300000000003,11439886.0,-0.4385528564453125
1708471848.1917057,13526.919999999998,-68935.08,17291.260000000002,11439100.0,-0.4383811950683594
1708471848.3277194,13618.349999999999,-68867.59,17295.22,11438034.0,-0.43815040588378906
1708471848.463733,13701.82,-68804.08,17299.17,11437434.0,-0.43798065185546875
1708471848.5997465,13781.32,-68744.51999999999,17303.120000000003,11436388.0,-0.43775367736816406
1708471848.73576,13856.849999999999,-68688.94,17303.120000000003,11435542.0,-0.4375476837158203
1708471848.8717735,13924.419999999998,-68637.33,17303.120000000003,11434835.0,-0.4373626708984375
1708471849.007787,13988.019999999997,-68589.69,17303.120000000003,11433621.0,-0.43709373474121094
1708471849.1438005,14047.650000000001,-68542.05,17303.120000000003,11432969.0,-0.4368934631347656
1708471849.2798142,14103.300000000003,-68498.39,17303.120000000003,11432339.0,-0.4367198944091797
1708471849.4158278,14154.980000000003,-68458.68,17303.120000000003,11431417.0,-0.43651390075683594
1708471849.5518413,14202.669999999998,-68418.98000000001,17299.17,11430772.0,-0.4363536834716797
1708471849.6878548,14246.400000000001,-68383.25,17295.22,11429836.0,-0.4361400604248047
1708471849.8238683,14290.120000000003,-68351.48999999999,17291.260000000002,11428960.0,-0.4359321594238281
1708471849.9598818,14329.870000000003,-68319.73000000001,17287.300000000003,11427823.0,-0.4356708526611328
1708471850.0958953,14365.650000000001,-68287.97,17283.35,11427014.0,-0.4354515075683594
1708471850.231909,14397.449999999997,-68260.18,17279.4,11425821.0,-0.4351959228515625
1708471850.3679225,14429.25,-68236.36,17275.440000000002,11424499.0,-0.4349098205566406
1708471850.503936,14457.080000000002,-68212.55,17271.480000000003,11423572.0,-0.434661865234375
1708471850.6399496,14484.900000000001,-68188.73000000001,17267.53,11422161.0,-0.4343528747558594
1708471850.775963,14508.75,-68168.87,17263.58,11421199.0,-0.4340972900390625
1708471850.9119766,14532.599999999999,-68149.01999999999,17259.620000000003,11420177.0,-0.4338531494140625
1708471851.04799,14556.449999999997,-68129.17,17255.660000000003,11418937.0,-0.4335899353027344
1708471851.1840038,14576.330000000002,-68113.29000000001,17251.71,11417932.0,-0.4333477020263672
1708471851.3200173,14596.199999999997,-68097.41,17247.760000000002,11416725.0,-0.43306541442871094
1708471851.4560308,14612.099999999999,-68081.53,17243.800000000003,11415376.0,-0.4327526092529297
1708471851.5920444,14628.0,-68069.62,17239.839999999997,11414247.0,-0.4324665069580078
1708471851.7280579,14643.900000000001,-68057.72,17235.89,11413016.0,-0.4321708679199219
1708471851.8640714,14659.800000000003,-68045.8,17231.940000000002,11411849.0,-0.4318828582763672
1708471852.0000849,14671.730000000003,-68033.89,17227.980000000003,11410403.0,-0.4315528869628906
1708471852.1360986,14683.650000000001,-68021.98000000001,17224.019999999997,11409391.0,-0.4312629699707031
1708471852.2721121,14695.580000000002,-68014.05,17220.07,11408306.0,-0.4309711456298828
1708471852.4081256,14707.5,-68006.1,17216.120000000003,11407188.0,-0.4306926727294922
1708471852.5441391,14719.419999999998,-67998.16,17212.160000000003,11406320.0,-0.43045616149902344
1708471852.6801527,14727.370000000003,-67990.23000000001,17208.199999999997,11405214.0,-0.43018531799316406
1708471852.8161662,14735.330000000002,-67982.28,17204.25,11404176.0,-0.4299201965332031
1708471852.9521797,14743.269999999997,-67974.33,17200.300000000003,11403078.0,-0.4296398162841797
1708471853.0881934,14751.230000000003,-67966.41,17196.339999999997,11401895.0,-0.4293403625488281
1708471853.224207,14759.169999999998,-67958.47,17192.379999999997,11400909.0,-0.4290809631347656
1708471853.3602204,14767.120000000003,-67954.48999999999,17188.43,11399721.0,-0.4287891387939453
1708471853.496234,14775.080000000002,-67950.51999999999,17184.480000000003,11398689.0,-0.4285144805908203
1708471853.6322474,14779.050000000003,-67946.55,17180.519999999997,11397518.0,-0.4282188415527344
1708471853.768261,14783.019999999997,-67942.58,17176.559999999998,11396233.0,-0.42789649963378906
1708471853.9042745,14787.0,-67938.61,17172.61,11395228.0,-0.4276313781738281
1708471854.0402882,14790.980000000003,-67934.64,17168.660000000003,11394013.0,-0.4273529052734375
1708471854.1763017,14794.949999999997,-67930.67,17164.699999999997,11392890.0,-0.4270820617675781
1708471854.3123152,14798.919999999998,-67926.70999999999,17160.739999999998,11391501.0,-0.42676734924316406
1708471854.4483287,14802.900000000001,-67922.73000000001,17156.79,11390214.0,-0.42644691467285156
1708471854.5843422,14806.870000000003,-67918.76000000001,17152.83,11388967.0,-0.42613983154296875
1708471854.7203557,14810.849999999999,-67914.8,17148.879999999997,11387528.0,-0.4258003234863281
1708471854.8563693,14814.830000000002,-67910.82,17148.879999999997,11386219.0,-0.4254798889160156
1708471854.992383,14818.800000000003,-67906.85,17144.92,11384738.0,-0.42513084411621094
1708471855.1283965,14822.769999999997,-67902.88,17144.92,11383512.0,-0.4248027801513672
1708471855.26441,14826.75,-67898.91,17144.92,11382207.0,-0.424468994140625
1708471855.4004235,14830.730000000003,-67894.94,17140.97,11380982.0,-0.4241676330566406
1708471855.536437,14834.699999999997,-67890.97,17137.010000000002,11380059.0,-0.42389488220214844
1708471855.6724505,14838.669999999998,-67890.97,17137.010000000002,11378843.0,-0.42360687255859375
1708471855.808464,14842.650000000001,-67887.0,17137.010000000002,11377759.0,-0.4233245849609375
1708471855.9444778,14842.650000000001,-67887.0,17133.059999999998,11376657.0,-0.42302703857421875
1708471856.0804913,14842.650000000001,-67887.0,17133.059999999998,11375419.0,-0.42270660400390625
1708471856.2165048,14846.620000000003,-67883.04000000001,17133.059999999998,11374368.0,-0.4224224090576172
1708471856.3525183,14850.599999999999,-67883.04000000001,17129.1,11373294.0,-0.4221363067626953
1708471856.4885318,14850.599999999999,-67883.04000000001,17129.1,11372307.0,-0.4218711853027344
1708471856.6245453,14850.599999999999,-67883.04000000001,17129.1,11370907.0,-0.4215240478515625
1708471856.7605588,14854.580000000002,-67879.06,17129.1,11369917.0,-0.4212360382080078
1708471856.8965726,14858.550000000003,-67879.06,17129.1,11369066.0,-0.42098236083984375
1708471857.032586,14862.519999999997,-67875.09,17125.15,11368056.0,-0.42072486877441406
1708471857.1685996,14862.519999999997,-67875.09,17121.190000000002,11367444.0,-0.4205303192138672
1708471857.304613,14862.519999999997,-67871.12,17121.190000000002,11366224.0,-0.42024803161621094
1708471857.4406266,14862.519999999997,-67871.12,17121.190000000002,11365181.0,-0.4199810028076172
1708471857.5766401,14862.519999999997,-67871.12,17121.190000000002,11364286.0,-0.4197235107421875
1708471857.7126536,14866.5,-67871.12,17121.190000000002,11363103.0,-0.4194316864013672
1708471857.8486674,14870.480000000003,-67867.16,17117.239999999998,11362139.0,-0.41917991638183594
1708471857.984681,14870.480000000003,-67867.16,17117.239999999998,11361168.0,-0.41892051696777344
1708471858.1206944,14870.480000000003,-67867.16,17117.239999999998,11360172.0,-0.4186553955078125
1708471858.256708,14870.480000000003,-67863.19,17113.28,11359061.0,-0.4183692932128906
1708471858.3927214,14870.480000000003,-67859.20999999999,17109.33,11358224.0,-0.418121337890625
1708471858.528735,14870.480000000003,-67859.20999999999,17109.33,11357192.0,-0.4178657531738281
1708471858.6647487,14870.480000000003,-67859.20999999999,17105.370000000003,11356232.0,-0.417633056640625
1708471858.8007622,14870.480000000003,-67859.20999999999,17105.370000000003,11355305.0,-0.4174003601074219
1708471858.9367757,14870.480000000003,-67859.20999999999,17105.370000000003,11353921.0,-0.4171009063720703
1708471859.0727892,14870.480000000003,-67855.23999999999,17101.42,11352728.0,-0.4168071746826172
1708471859.2088027,14870.480000000003,-67851.26999999999,17097.46,11351485.0,-0.4165077209472656
1708471859.3448162,14870.480000000003,-67851.26999999999,17093.510000000002,11350217.0,-0.41620635986328125
1708471859.4808297,14870.480000000003,-67847.3,17089.550000000003,11348985.0,-0.4159088134765625
1708471859.6168435,14870.480000000003,-67847.3,17089.550000000003,11347688.0,-0.4155921936035156
1708471859.752857,14870.480000000003,-67847.3,17085.6,11346237.0,-0.4152507781982422
1708471859.8888705,14870.480000000003,-67847.3,17085.6,11344899.0,-0.4149341583251953
1708471860.024884,14870.480000000003,-67847.3,17085.6,11343745.0,-0.4146251678466797
1708471860.1608975,14870.480000000003,-67847.3,17085.6,11342704.0,-0.4143505096435547
1708471860.296911,14874.449999999997,-67843.33,17085.6,11341410.0,-0.4140491485595703
1708471860.4329245,14878.419999999998,-67843.33,17085.6,11340422.0,-0.41379356384277344
1708471860.5689383,14878.419999999998,-67843.33,17081.64,11339155.0,-0.41347694396972656
1708471860.7049518,14882.400000000001,-67839.36,17081.64,11338173.0,-0.4131965637207031
1708471860.8409653,14882.400000000001,-67839.36,17081.64,11337246.0,-0.41292762756347656
1708471860.9769788,14886.370000000003,-67839.36,17081.64,11336220.0,-0.41265869140625
1708471861.1129923,14886.370000000003,-67839.36,17081.64,11335102.0,-0.41237831115722656
1708471861.2490058,14890.349999999999,-67839.36,17081.64,11334068.0,-0.41208648681640625
1708471861.3850193,14894.330000000002,-67835.4,17077.690000000002,11332969.0,-0.4117870330810547
1708471861.521033,14898.300000000003,-67831.43,17077.690000000002,11332138.0,-0.4115428924560547
1708471861.6570466,14898.300000000003,-67831.43,17073.730000000003,11331312.0,-0.4113140106201172
1708471861.79306,14898.300000000003,-67831.43,17073.730000000003,11330291.0,-0.41107177734375
1708471861.9290736,14898.300000000003,-67827.45,17069.78,11329366.0,-0.41083335876464844
1708471862.065087,14898.300000000003,-67827.45,17069.78,11328310.0,-0.4105644226074219
1708471862.2011006,14898.300000000003,-67827.45,17069.78,11327257.0,-0.4102916717529297
1708471862.337114,14902.269999999997,-67823.48000000001,17065.82,11326062.0,-0.4100055694580078
1708471862.4731278,14902.269999999997,-67823.48000000001,17061.870000000003,11325066.0,-0.4097442626953125
1708471862.6091413,14902.269999999997,-67823.48000000001,17061.870000000003,11323662.0,-0.40943145751953125
1708471862.7451549,14902.269999999997,-67819.51000000001,17057.910000000003,11322370.0,-0.4091148376464844
1708471862.8811684,14902.269999999997,-67815.54000000001,17057.910000000003,11321114.0,-0.4087963104248047
1708471863.0171819,14902.269999999997,-67815.54000000001,17053.96,11319995.0,-0.4085102081298828
1708471863.1531954,14902.269999999997,-67815.54000000001,17050.0,11318865.0,-0.4082374572753906
1708471863.289209,14902.269999999997,-67811.57,17050.0,11317731.0,-0.4079723358154297
1708471863.4252226,14902.269999999997,-67811.57,17050.0,11316504.0,-0.40767860412597656
1708471863.5612361,14902.269999999997,-67811.57,17050.0,11315153.0,-0.40735626220703125
1708471863.6972497,14902.269999999997,-67807.6,17046.050000000003,11313826.0,-0.4070301055908203
1708471863.8332632,14902.269999999997,-67807.6,17046.050000000003,11312845.0,-0.4067573547363281
1708471863.9692767,14902.269999999997,-67803.63,17042.1,11311335.0,-0.4064159393310547
1708471864.1052902,14902.269999999997,-67803.63,17038.14,11310214.0,-0.40612030029296875
1708471864.2413037,14902.269999999997,-67799.66,17034.190000000002,11308860.0,-0.40578269958496094
1708471864.3773174,14902.269999999997,-67799.66,17034.190000000002,11307621.0,-0.4054584503173828
1708471864.513331,14906.25,-67799.66,17034.190000000002,11306644.0,-0.4051780700683594
1708471864.6493444,14906.25,-67795.69,17034.190000000002,11305493.0,-0.40490150451660156
1708471864.785358,14906.25,-67795.69,17034.190000000002,11304512.0,-0.4046440124511719
1708471864.9213715,14906.25,-67795.69,17034.190000000002,11303238.0,-0.4043426513671875
1708471865.057385,14910.230000000003,-67791.73000000001,17030.230000000003,11302201.0,-0.40406227111816406
1708471865.1933985,14910.230000000003,-67791.73000000001,17030.230000000003,11301142.0,-0.40376853942871094
