,x,y,z,temp,temp_error
1717701491.6810656,-7711.560000000001,-8542.349999999999,-8173.0,8644487.0,0.0
1717701491.8186576,-8095.07,-8837.55,-8704.25,8656396.0,-0.038852691650390625
1717701491.9562497,-8471.66,-9129.060000000001,-9246.64,8667548.0,-0.041431427001953125
1717701492.0938416,-8844.8,-9416.880000000001,-9800.169999999998,8677788.0,-0.043766021728515625
1717701492.2314336,-9214.48,-9701.009999999998,-10364.849999999999,8687493.0,-0.04586982727050781
1717701492.3690257,-9577.259999999998,-9981.45,-10940.669999999998,8696568.0,-0.04777336120605469
1717701492.5066178,-9936.580000000002,-10261.89,-11527.64,8704513.0,-0.04936408996582031
1717701492.6442099,-10292.439999999999,-10542.330000000002,-12125.759999999998,8711588.0,-0.050701141357421875
1717701492.7818017,-10644.849999999999,-10826.46,-12731.3,8718093.0,-0.05182456970214844
1717701492.9193938,-10993.810000000001,-11110.59,-13351.71,8723524.0,-0.05269622802734375
1717701493.0569859,-11342.759999999998,-11398.41,-13983.259999999998,8727880.0,-0.05330657958984375
1717701493.194578,-11688.259999999998,-11686.23,-14625.96,8731448.0,-0.053722381591796875
1717701493.3321698,-12030.310000000001,-11977.740000000002,-15279.8,8733999.0,-0.05391120910644531
1717701493.4697618,-12368.900000000001,-12269.25,-15944.779999999999,8735376.0,-0.05383110046386719
1717701493.607354,-12704.029999999999,-12560.759999999998,-16620.91,8736062.0,-0.05362129211425781
1717701493.744946,-13039.169999999998,-12852.27,-17308.190000000002,8735967.0,-0.0531768798828125
1717701493.882538,-13367.39,-13143.779999999999,-18006.61,8735203.0,-0.052570343017578125
1717701494.02013,-13695.619999999999,-13435.29,-18716.17,8733748.0,-0.05175971984863281
1717701494.157722,-14020.39,-13726.8,-19440.6,8732275.0,-0.05090522766113281
1717701494.295314,-14341.71,-14018.310000000001,-20176.16,8730813.0,-0.05002593994140625
1717701494.4329062,-14659.57,-14306.130000000001,-20926.6,8729487.0,-0.04915618896484375
1717701494.5704982,-14977.419999999998,-14593.95,-21688.17,8728538.0,-0.04836273193359375
1717701494.70809,-15288.369999999999,-14878.080000000002,-22464.61,8727838.0,-0.04765892028808594
1717701494.8456821,-15595.869999999999,-15158.52,-23252.190000000002,8727769.0,-0.047100067138671875
1717701494.9832742,-15903.369999999999,-15438.96,-24054.629999999997,8728215.0,-0.04676055908203125
1717701495.1208663,-16203.95,-15715.71,-24868.21,8729334.0,-0.046566009521484375
1717701495.2584581,-16504.54,-15988.77,-25692.94,8730864.0,-0.04656410217285156
1717701495.3960502,-16801.66,-16258.14,-26532.53,8732964.0,-0.04670524597167969
1717701495.5336423,-17091.879999999997,-16520.129999999997,-27383.27,8736053.0,-0.04710960388183594
1717701495.6712344,-17378.65,-16782.120000000003,-28248.86,8739773.0,-0.04766082763671875
1717701495.8088264,-17661.96,-17040.42,-29125.6,8744806.0,-0.04846954345703125
1717701495.9464183,-17941.82,-17295.03,-30013.489999999998,8751088.0,-0.04957389831542969
1717701496.0840104,-18218.22,-17545.95,-30912.52,8758565.0,-0.050922393798828125
1717701496.2216024,-18491.16,-17793.18,-31822.69,8767525.0,-0.052581787109375
1717701496.3591945,-18757.2,-18044.1,-32740.3,8778152.0,-0.05460548400878906
1717701496.4967866,-19019.78,-18287.64,-33665.33,8790354.0,-0.057033538818359375
1717701496.6343784,-19278.9,-18534.870000000003,-34597.8,8804128.0,-0.05982398986816406
1717701496.7719705,-19534.57,-18778.41,-35533.98,8819553.0,-0.06304359436035156
1717701496.9095626,-19783.33,-19021.95,-36470.16,8836458.0,-0.06662750244140625
1717701497.0471547,-20028.64,-19265.489999999998,-37402.62,8854467.0,-0.07047653198242188
1717701497.1847467,-20270.48,-19509.03,-38331.37,8873715.0,-0.07459640502929688
1717701497.3223386,-20505.43,-19752.57,-39248.979999999996,8894112.0,-0.07899284362792969
1717701497.4599307,-20736.91,-19992.42,-40151.72,8915020.0,-0.08349037170410156
1717701497.5975227,-20961.48,-20232.27,-41035.89,8936622.0,-0.08803176879882812
1717701497.7351148,-21182.61,-20475.809999999998,-41894.06,8958163.0,-0.09244728088378906
1717701497.8727067,-21400.27,-20711.97,-42722.5,8979738.0,-0.096771240234375
1717701498.0102987,-21614.48,-20951.82,-43513.8,9000324.0,-0.10077095031738281
1717701498.1478908,-21818.32,-21184.29,-44264.229999999996,9019848.0,-0.10440826416015625
1717701498.285483,-22018.72,-21416.760000000002,-44966.36,9037940.0,-0.10764694213867188
1717701498.423075,-22212.2,-21638.16,-45620.2,9053633.0,-0.11021614074707031
1717701498.5606668,-22402.22,-21859.559999999998,-46218.32,9067281.0,-0.11220359802246094
1717701498.6982589,-22585.34,-22066.2,-46764.42,9078156.0,-0.11347198486328125
1717701498.835851,-22758.09,-22265.46,-47254.8,9086746.0,-0.11416244506835938
1717701498.973443,-22927.379999999997,-22449.96,-47693.17,9092722.0,-0.11417961120605469
1717701499.111035,-23086.309999999998,-22619.7,-48079.53,9096335.0,-0.11358070373535156
1717701499.248627,-23238.33,-22782.059999999998,-48421.31,9097983.0,-0.11247062683105469
1717701499.386219,-23379.98,-22918.59,-48718.520000000004,9098013.0,-0.11092185974121094
1717701499.523811,-23511.28,-23047.739999999998,-48978.56,9096667.0,-0.10900306701660156
1717701499.6614032,-23639.11,-23158.440000000002,-49205.18,9094135.0,-0.10680007934570312
1717701499.798995,-23753.129999999997,-23254.379999999997,-49398.36,9090712.0,-0.10437583923339844
1717701499.936587,-23860.23,-23335.559999999998,-49565.53,9086998.0,-0.10189056396484375
1717701500.0741792,-23956.97,-23401.98,-49710.42,9082701.0,-0.09926986694335938
1717701500.2117712,-24046.8,-23457.33,-49836.729999999996,9078285.0,-0.09663581848144531
1717701500.3493633,-24129.72,-23508.989999999998,-49944.46,9073710.0,-0.09397315979003906
1717701500.4869552,-24205.73,-23549.58,-50037.34,9069050.0,-0.09130096435546875
1717701500.6245472,-24274.83,-23579.1,-50119.07,9064290.0,-0.08864212036132812
1717701500.7621393,-24337.02,-23601.239999999998,-50189.65,9059517.0,-0.0860137939453125
1717701500.8997314,-24392.3,-23623.379999999997,-50249.09,9054747.0,-0.08343887329101562
1717701501.0373235,-24440.67,-23638.14,-50301.1,9049852.0,-0.08086967468261719
1717701501.1749153,-24485.59,-23652.9,-50349.4,9045032.0,-0.07833099365234375
1717701501.3125074,-24527.05,-23660.28,-50390.259999999995,9040254.0,-0.07582283020019531
1717701501.4500995,-24565.05,-23660.28,-50427.41,9035338.0,-0.07331275939941406
1717701501.5876915,-24596.14,-23663.97,-50460.85,9030471.0,-0.07085609436035156
1717701501.7252836,-24623.79,-23660.28,-50490.57,9025570.0,-0.06841850280761719
1717701501.8628755,-24651.43,-23663.97,-50516.57,9020647.0,-0.06600761413574219
1717701502.0004675,-24675.61,-23660.28,-50542.58,9015439.0,-0.06354522705078125
1717701502.1380596,-24699.8,-23656.59,-50568.58,9010420.0,-0.061153411865234375
1717701502.2756517,-24717.07,-23649.21,-50590.880000000005,9005494.0,-0.05880928039550781
1717701502.4132435,-24734.35,-23645.52,-50613.16,9000585.0,-0.05650138854980469
1717701502.5508356,-24748.17,-23641.83,-50631.740000000005,8995493.0,-0.0541839599609375
1717701502.6884277,-24758.53,-23645.52,-50646.6,8990385.0,-0.051910400390625
1717701502.8260198,-24768.9,-23645.52,-50661.46,8985170.0,-0.04965782165527344
1717701502.9636118,-24779.260000000002,-23641.83,-50676.32,8979650.0,-0.047367095947265625
1717701503.1012037,-24786.17,-23645.52,-50687.46,8974211.0,-0.045139312744140625
1717701503.2387958,-24793.08,-23645.52,-50698.61,8968368.0,-0.0428314208984375
1717701503.3763878,-24796.54,-23649.21,-50706.04,8962312.0,-0.04050445556640625
1717701503.51398,-24799.989999999998,-23656.59,-50713.47,8956117.0,-0.03820037841796875
1717701503.651572,-24803.45,-23663.97,-50720.9,8949597.0,-0.03586387634277344
1717701503.7891638,-24806.9,-23667.66,-50724.61,8942944.0,-0.03351402282714844
1717701503.926756,-24810.36,-23671.35,-50728.33,8936142.0,-0.031158447265625
1717701504.064348,-24810.36,-23675.04,-50732.04,8929418.0,-0.0288543701171875
1717701504.20194,-24810.36,-23682.42,-50732.04,8922469.0,-0.026525497436523438
1717701504.339532,-24810.36,-23686.11,-50732.04,8915434.0,-0.0242156982421875
1717701504.477124,-24810.36,-23689.8,-50735.759999999995,8908243.0,-0.021923065185546875
1717701504.614716,-24810.36,-23697.18,-50739.47,8900997.0,-0.019678115844726562
1717701504.7523081,-24806.9,-23700.870000000003,-50739.47,8893475.0,-0.017414093017578125
1717701504.8899002,-24803.45,-23711.940000000002,-50739.47,8885696.0,-0.015130996704101562
1717701505.027492,-24799.989999999998,-23723.010000000002,-50739.47,8877724.0,-0.01282501220703125
1717701505.1650841,-24796.54,-23737.77,-50735.759999999995,8869537.0,-0.010503768920898438
1717701505.3026762,-24793.08,-23748.84,-50732.04,8861091.0,-0.008172988891601562
1717701505.4402683,-24789.63,-23763.6,-50728.33,8852378.0,-0.0058460235595703125
1717701505.5778604,-24782.72,-23778.36,-50720.9,8843423.0,-0.003482818603515625
1717701505.7154522,-24779.260000000002,-23796.809999999998,-50713.47,8834380.0,-0.001125335693359375
1717701505.8530443,-24772.35,-23807.879999999997,-50706.04,8825130.0,0.001262664794921875
1717701505.9906363,-24765.44,-23822.64,-50698.61,8815920.0,0.003597259521484375
1717701506.1282284,-24758.53,-23837.4,-50691.18,8806507.0,0.005931854248046875
1717701506.2658205,-24751.62,-23852.16,-50683.75,8796963.0,0.008253097534179688
1717701506.4034123,-24744.71,-23863.23,-50676.32,8787527.0,0.010488510131835938
1717701506.5410044,-24737.8,-23877.989999999998,-50668.89,8778071.0,0.012670516967773438
1717701506.6785965,-24730.89,-23892.75,-50657.740000000005,8768568.0,0.0148162841796875
1717701506.8161886,-24723.98,-23907.510000000002,-50646.6,8759011.0,0.016941070556640625
1717701506.9537804,-24717.07,-23922.27,-50635.45,8749575.0,0.01900482177734375
1717701507.0913725,-24710.16,-23933.34,-50628.020000000004,8740588.0,0.020914077758789062
1717701507.2289646,-24703.25,-23944.41,-50620.59,8731767.0,0.022737503051757812
1717701507.3665566,-24696.34,-23959.17,-50613.16,8723229.0,0.024435043334960938
1717701507.5041487,-24689.43,-23970.239999999998,-50602.020000000004,8715199.0,0.025995254516601562
1717701507.6417406,-24682.52,-23981.309999999998,-50590.880000000005,8707571.0,0.027448654174804688
1717701507.7793326,-24675.61,-23996.07,-50579.729999999996,8700443.0,0.028778076171875
1717701507.9169247,-24668.7,-24003.45,-50568.58,8693912.0,0.029924392700195312
1717701508.0545168,-24665.25,-24010.83,-50557.44,8688218.0,0.030828475952148438
1717701508.1921089,-24658.34,-24014.52,-50546.29,8682994.0,0.03159141540527344
1717701508.3297007,-24651.43,-24018.21,-50538.86,8678640.0,0.03211212158203125
1717701508.4672928,-24647.97,-24021.9,-50531.43,8674741.0,0.032497406005859375
1717701508.6048849,-24644.52,-24021.9,-50524.0,8671591.0,0.032695770263671875
1717701508.742477,-24641.06,-24021.9,-50516.57,8669017.0,0.03274726867675781
1717701508.8800688,-24641.06,-24018.21,-50512.86,8667251.0,0.03259468078613281
1717701509.0176609,-24641.06,-24010.83,-50512.86,8665943.0,0.03233146667480469
1717701509.155253,-24641.06,-24007.14,-50512.86,8665406.0,0.03186607360839844
1717701509.292845,-24637.61,-24003.45,-50509.14,8665268.0,0.031322479248046875
1717701509.430437,-24634.15,-23999.760000000002,-50509.14,8665672.0,0.030668258666992188
1717701509.568029,-24630.7,-23996.07,-50509.14,8666481.0,0.029958724975585938
1717701509.705621,-24630.7,-23992.379999999997,-50505.43,8667764.0,0.029142379760742188
1717701509.843213,-24630.7,-23988.690000000002,-50505.43,8669187.0,0.028263092041015625
1717701509.9808052,-24630.7,-23981.309999999998,-50505.43,8671039.0,0.02735137939453125
1717701510.1183972,-24630.7,-23970.239999999998,-50505.43,8672969.0,0.026393890380859375
1717701510.255989,-24630.7,-23962.86,-50505.43,8675156.0,0.025381088256835938
1717701510.3935812,-24634.15,-23951.79,-50505.43,8677131.0,0.02443695068359375
1717701510.5311732,-24634.15,-23940.72,-50509.14,8679111.0,0.023509979248046875
1717701510.6687653,-24637.61,-23929.65,-50512.86,8681069.0,0.022603988647460938
1717701510.8063574,-24641.06,-23918.58,-50516.57,8682914.0,0.02175140380859375
1717701510.9439492,-24641.06,-23903.82,-50524.0,8684485.0,0.020982742309570312
1717701511.0815413,-24644.52,-23896.440000000002,-50531.43,8685876.0,0.020259857177734375
1717701511.2191334,-24647.97,-23881.68,-50538.86,8686782.0,0.0196685791015625
1717701511.3567255,-24654.88,-23870.61,-50546.29,8687606.0,0.019140243530273438
1717701511.4943173,-24658.34,-23855.85,-50553.72,8688108.0,0.018728256225585938
1717701511.6319094,-24665.25,-23844.78,-50564.869999999995,8688565.0,0.018337249755859375
1717701511.7695014,-24668.7,-23830.02,-50576.009999999995,8688340.0,0.018095016479492188
1717701511.9070935,-24675.61,-23822.64,-50587.16,8688147.0,0.0178375244140625
1717701512.0446856,-24679.06,-23811.57,-50594.59,8687406.0,0.017732620239257812
1717701512.1822774,-24685.98,-23804.190000000002,-50605.729999999996,8686343.0,0.0177001953125
1717701512.3198695,-24692.88,-23796.809999999998,-50616.880000000005,8685112.0,0.017719268798828125
1717701512.4574616,-24699.8,-23782.05,-50628.020000000004,8683468.0,0.017841339111328125
1717701512.5950537,-24706.71,-23778.36,-50639.17,8681847.0,0.017953872680664062
1717701512.7326458,-24710.16,-23767.29,-50650.31,8679780.0,0.018169403076171875
1717701512.8702376,-24717.07,-23759.91,-50657.740000000005,8677554.0,0.018415451049804688
1717701513.0078297,-24720.53,-23752.53,-50665.17,8675225.0,0.018690109252929688
1717701513.1454217,-24723.98,-23745.15,-50672.6,8672761.0,0.019002914428710938
1717701513.2830138,-24730.89,-23745.15,-50680.04,8670286.0,0.019327163696289062
1717701513.4206057,-24737.8,-23737.77,-50687.46,8667573.0,0.0197296142578125
1717701513.5581977,-24741.260000000002,-23737.77,-50694.89,8665252.0,0.020032882690429688
1717701513.6957898,-24744.71,-23737.77,-50702.33,8662761.0,0.020351409912109375
1717701513.833382,-24748.17,-23741.46,-50706.04,8660434.0,0.020593643188476562
1717701513.970974,-24748.17,-23741.46,-50709.75,8657922.0,0.020879745483398438
1717701514.1085658,-24751.62,-23748.84,-50713.47,8655640.0,0.0211181640625
1717701514.246158,-24755.08,-23748.84,-50717.18,8653431.0,0.021341323852539062
1717701514.38375,-24758.53,-23756.22,-50717.18,8651472.0,0.0214996337890625
1717701514.521342,-24758.53,-23759.91,-50717.18,8649419.0,0.021657943725585938
1717701514.658934,-24758.53,-23767.29,-50717.18,8647602.0,0.021745681762695312
1717701514.796526,-24758.53,-23767.29,-50713.47,8645543.0,0.021898269653320312
1717701514.934118,-24761.98,-23774.67,-50709.75,8644014.0,0.021930694580078125
1717701515.07171,-24765.44,-23774.67,-50706.04,8642379.0,0.021997451782226562
1717701515.2093022,-24765.44,-23774.67,-50702.33,8641099.0,0.0219879150390625
1717701515.3468943,-24765.44,-23782.05,-50698.61,8639983.0,0.021945953369140625
1717701515.484486,-24765.44,-23785.739999999998,-50694.89,8639015.0,0.02187347412109375
1717701515.6220782,-24765.44,-23789.43,-50691.18,8638210.0,0.021738052368164062
1717701515.7596703,-24765.44,-23800.5,-50687.46,8637492.0,0.0215606689453125
1717701515.8972623,-24765.44,-23807.879999999997,-50683.75,8636809.0,0.021383285522460938
1717701516.0348542,-24765.44,-23818.95,-50680.04,8636285.0,0.021183013916015625
1717701516.1724463,-24761.98,-23830.02,-50676.32,8635705.0,0.021005630493164062
1717701516.3100383,-24758.53,-23837.4,-50668.89,8635312.0,0.020782470703125
1717701516.4476304,-24755.08,-23848.47,-50661.46,8634821.0,0.020572662353515625
1717701516.5852225,-24751.62,-23859.54,-50654.03,8634334.0,0.020349502563476562
1717701516.7228143,-24748.17,-23874.3,-50646.6,8633966.0,0.020122528076171875
1717701516.8604064,-24744.71,-23881.68,-50639.17,8633547.0,0.019908905029296875
1717701516.9979985,-24741.260000000002,-23889.059999999998,-50631.740000000005,8633279.0,0.019689559936523438
1717701517.1355906,-24737.8,-23903.82,-50620.59,8633046.0,0.019475936889648438
1717701517.2731826,-24734.35,-23911.2,-50613.16,8632747.0,0.019277572631835938
1717701517.4107745,-24730.89,-23922.27,-50605.729999999996,8632615.0,0.019037246704101562
1717701517.5483665,-24727.44,-23925.96,-50598.3,8632604.0,0.018774032592773438
1717701517.6859586,-24723.98,-23940.72,-50590.880000000005,8632556.0,0.018507003784179688
1717701517.8235507,-24717.07,-23951.79,-50579.729999999996,8632308.0,0.018283843994140625
1717701517.9611425,-24713.62,-23959.17,-50572.3,8631965.0,0.018083572387695312
1717701518.0987346,-24706.71,-23966.55,-50564.869999999995,8631643.0,0.017879486083984375
1717701518.2363267,-24703.25,-23977.620000000003,-50557.44,8631348.0,0.017686843872070312
1717701518.3739188,-24699.8,-23985.0,-50550.009999999995,8630942.0,0.017530441284179688
1717701518.5115108,-24696.34,-23992.379999999997,-50542.58,8630480.0,0.017374038696289062
1717701518.6491027,-24689.43,-23996.07,-50535.15,8629985.0,0.0172119140625
1717701518.7866948,-24685.98,-24003.45,-50527.72,8629569.0,0.017053604125976562
1717701518.9242868,-24679.06,-24018.21,-50520.29,8629126.0,0.016908645629882812
1717701519.061879,-24675.61,-24021.9,-50512.86,8628533.0,0.01683807373046875
1717701519.199471,-24672.16,-24029.28,-50505.43,8628253.0,0.016704559326171875
1717701519.3370628,-24668.7,-24032.97,-50501.72,8627864.0,0.016582489013671875
1717701519.474655,-24661.79,-24036.66,-50494.28,8627579.0,0.016427993774414062
1717701519.612247,-24658.34,-24040.35,-50486.85,8627219.0,0.0162811279296875
1717701519.749839,-24654.88,-24040.35,-50483.14,8626889.0,0.016119003295898438
1717701519.8874311,-24651.43,-24044.04,-50479.42,8626439.0,0.01598358154296875
1717701520.025023,-24647.97,-24040.35,-50475.71,8626004.0,0.015857696533203125
1717701520.162615,-24647.97,-24036.66,-50472.0,8625681.0,0.0157012939453125
1717701520.3002071,-24644.52,-24032.97,-50472.0,8625274.0,0.015562057495117188
1717701520.4377992,-24641.06,-24029.28,-50472.0,8624861.0,0.015409469604492188
1717701520.575391,-24637.61,-24025.59,-50472.0,8624431.0,0.015285491943359375
1717701520.7129831,-24637.61,-24025.59,-50472.0,8624018.0,0.015180587768554688
1717701520.8505752,-24637.61,-24021.9,-50472.0,8623692.0,0.0150909423828125
1717701520.9881673,-24637.61,-24018.21,-50472.0,8623512.0,0.01496124267578125
1717701521.1257594,-24634.15,-24014.52,-50472.0,8623339.0,0.014814376831054688
1717701521.2633512,-24630.7,-24014.52,-50472.0,8623157.0,0.014657974243164062
1717701521.4009433,-24630.7,-24007.14,-50472.0,8623012.0,0.014484405517578125
1717701521.5385354,-24630.7,-24007.14,-50472.0,8622939.0,0.014286041259765625
1717701521.6761274,-24630.7,-24003.45,-50472.0,8622780.0,0.014125823974609375
1717701521.8137195,-24630.7,-23999.760000000002,-50475.71,8622585.0,0.013975143432617188
1717701521.9513113,-24630.7,-23996.07,-50479.42,8622426.0,0.013822555541992188
1717701522.0889034,-24630.7,-23988.690000000002,-50483.14,8622246.0,0.013671875
1717701522.2264955,-24630.7,-23981.309999999998,-50486.85,8622068.0,0.013509750366210938
1717701522.3640876,-24630.7,-23973.93,-50490.57,8621873.0,0.01334381103515625
1717701522.5016794,-24630.7,-23962.86,-50494.28,8621681.0,0.0131988525390625
1717701522.6392715,-24634.15,-23959.17,-50498.0,8621721.0,0.013031005859375
1717701522.7768636,-24637.61,-23948.1,-50505.43,8621767.0,0.01288604736328125
1717701522.9144557,-24641.06,-23937.03,-50512.86,8621843.0,0.01271820068359375
1717701523.0520477,-24644.52,-23929.65,-50516.57,8621999.0,0.012510299682617188
1717701523.1896396,-24647.97,-23918.58,-50524.0,8622046.0,0.012319564819335938
1717701523.3272316,-24651.43,-23907.510000000002,-50531.43,8622240.0,0.012083053588867188
1717701523.4648237,-24654.88,-23896.440000000002,-50538.86,8622341.0,0.011884689331054688
1717701523.6024158,-24658.34,-23885.370000000003,-50546.29,8622549.0,0.011669158935546875
1717701523.7400079,-24661.79,-23874.3,-50553.72,8622692.0,0.011468887329101562
1717701523.8775997,-24665.25,-23866.92,-50564.869999999995,8622910.0,0.011249542236328125
1717701524.0151918,-24668.7,-23855.85,-50576.009999999995,8622948.0,0.011079788208007812
1717701524.1527839,-24672.16,-23844.78,-50583.44,8623080.0,0.010875701904296875
