,x,y,z,temp,temp_error
1714593810.2623308,-22554.15,-1897.6599999999999,-25446.47,10310474.0,0.0
1714593810.4032483,-23448.53,-2421.7000000000007,-27119.44,10369746.0,-0.1262683868408203
1714593810.5441658,-24295.2,-2973.529999999999,-28776.58,10430013.0,-0.13856124877929688
1714593810.6850834,-25090.2,-3545.209999999999,-30402.09,10492462.0,-0.1517047882080078
1714593810.8260012,-25833.53,-4132.77,-31980.13,10554890.0,-0.1654224395751953
1714593810.9669187,-26517.22,-4728.27,-33490.94,10613266.0,-0.1788043975830078
1714593811.1078362,-27137.33,-5327.740000000002,-34914.74,10665917.0,-0.19124984741210938
1714593811.2487538,-27693.83,-5915.299999999999,-36239.66,10715192.0,-0.20346641540527344
1714593811.3896713,-28186.72,-6486.98,-37453.85,10758756.0,-0.21512794494628906
1714593811.5305889,-28616.03,-7030.869999999999,-38549.39,10794648.0,-0.2257976531982422
1714593811.6715064,-28985.7,-7535.060000000001,-39526.270000000004,10820615.0,-0.23474693298339844
1714593811.8124242,-29299.72,-7999.549999999999,-40380.55,10839350.0,-0.24239540100097656
1714593811.9533417,-29562.08,-8416.400000000001,-41120.14,10850561.0,-0.24887657165527344
1714593812.0942593,-29776.72,-8785.61,-41752.94,10854724.0,-0.2540283203125
1714593812.2351768,-29951.63,-9107.18,-42294.770000000004,10853106.0,-0.2579212188720703
1714593812.3760943,-30090.75,-9381.11,-42753.55,10847035.0,-0.2605781555175781
1714593812.517012,-30198.08,-9615.34,-43137.19,10839175.0,-0.262603759765625
1714593812.6579294,-30281.55,-9809.869999999999,-43461.5,10830242.0,-0.2640361785888672
1714593812.7988472,-30341.18,-9976.61,-43734.39,10820633.0,-0.26498985290527344
1714593812.9397647,-30380.93,-10111.59,-43963.78,10811254.0,-0.26551246643066406
1714593813.0806823,-30408.75,-10222.75,-44153.62,10802943.0,-0.2658195495605469
1714593813.2215998,-30424.65,-10318.029999999999,-44311.82,10794907.0,-0.2659435272216797
1714593813.3625174,-30428.63,-10393.46,-44442.34,10787866.0,-0.2659149169921875
1714593813.503435,-30424.65,-10453.009999999998,-44553.08,10781660.0,-0.2658271789550781
1714593813.6443524,-30412.72,-10504.619999999999,-44640.09,10776004.0,-0.2655658721923828
1714593813.7852702,-30396.83,-10544.32,-44711.28,10771314.0,-0.26537132263183594
1714593813.9261878,-30380.93,-10580.05,-44766.64,10766836.0,-0.26505088806152344
1714593814.0671053,-30361.05,-10607.84,-44814.11,10763179.0,-0.2647724151611328
1714593814.2080228,-30341.18,-10627.689999999999,-44849.7,10759718.0,-0.2644309997558594
1714593814.3489404,-30325.28,-10643.57,-44877.39,10756923.0,-0.26407814025878906
1714593814.489858,-30309.38,-10655.48,-44897.16,10753859.0,-0.26371002197265625
1714593814.6307755,-30293.48,-10663.419999999998,-44912.979999999996,10751257.0,-0.2633018493652344
1714593814.7716932,-30281.55,-10667.39,-44928.8,10748943.0,-0.2629528045654297
1714593814.9126108,-30273.6,-10667.39,-44940.67,10746417.0,-0.26248931884765625
1714593815.0535283,-30269.63,-10671.36,-44952.53,10744036.0,-0.26209068298339844
1714593815.1944458,-30265.65,-10671.36,-44964.4,10741568.0,-0.2616138458251953
1714593815.3353634,-30261.68,-10671.36,-44976.26,10739766.0,-0.26122283935546875
1714593815.476281,-30261.68,-10671.36,-44988.12,10737577.0,-0.26076698303222656
1714593815.6171985,-30261.68,-10667.39,-44999.99,10735503.0,-0.2602996826171875
1714593815.7581162,-30261.68,-10663.419999999998,-45011.86,10733484.0,-0.25988006591796875
1714593815.8990338,-30261.68,-10659.45,-45023.72,10731776.0,-0.259429931640625
1714593816.0399513,-30261.68,-10659.45,-45035.59,10729755.0,-0.25899696350097656
1714593816.1808689,-30257.7,-10659.45,-45047.45,10727921.0,-0.25852203369140625
1714593816.3217864,-30253.72,-10659.45,-45055.36,10726301.0,-0.2581291198730469
1714593816.462704,-30245.78,-10659.45,-45063.270000000004,10724113.0,-0.25763511657714844
1714593816.6036215,-30237.83,-10659.45,-45067.229999999996,10722485.0,-0.25720977783203125
1714593816.7445393,-30229.88,-10659.45,-45067.229999999996,10720545.0,-0.25675010681152344
1714593816.8854568,-30221.93,-10659.45,-45067.229999999996,10718673.0,-0.25626182556152344
1714593817.0263743,-30213.98,-10659.45,-45063.270000000004,10716769.0,-0.25583839416503906
1714593817.1672919,-30206.03,-10659.45,-45059.32,10715267.0,-0.2553844451904297
1714593817.3082094,-30198.08,-10659.45,-45055.36,10713361.0,-0.2549476623535156
1714593817.449127,-30190.13,-10659.45,-45047.45,10710870.0,-0.25436973571777344
1714593817.5900445,-30186.15,-10659.45,-45039.54,10709307.0,-0.2539634704589844
1714593817.730962,-30182.18,-10659.45,-45035.59,10707224.0,-0.2534618377685547
1714593817.8718798,-30182.18,-10659.45,-45031.63,10705758.0,-0.25304412841796875
1714593818.0127974,-30186.15,-10659.45,-45027.68,10703727.0,-0.2525634765625
1714593818.153715,-30190.13,-10659.45,-45027.68,10701835.0,-0.25205421447753906
1714593818.2946324,-30194.1,-10659.45,-45027.68,10700070.0,-0.2516460418701172
1714593818.43555,-30202.05,-10655.48,-45031.63,10698068.0,-0.25112342834472656
1714593818.5764675,-30210.0,-10655.48,-45035.59,10696273.0,-0.2506885528564453
1714593818.717385,-30217.95,-10651.509999999998,-45043.5,10694418.0,-0.2501869201660156
1714593818.8583028,-30225.9,-10651.509999999998,-45051.41,10692433.0,-0.2497272491455078
1714593818.9992204,-30229.88,-10651.509999999998,-45059.32,10689837.0,-0.24915695190429688
1714593819.140138,-30233.85,-10651.509999999998,-45067.229999999996,10688155.0,-0.2486858367919922
1714593819.2810555,-30233.85,-10651.509999999998,-45071.18,10686279.0,-0.24822616577148438
1714593819.421973,-30233.85,-10651.509999999998,-45075.14,10684435.0,-0.24772071838378906
1714593819.5628905,-30229.88,-10651.509999999998,-45079.09,10682441.0,-0.24726104736328125
1714593819.703808,-30225.9,-10651.509999999998,-45083.05,10680671.0,-0.24676132202148438
1714593819.8447258,-30217.95,-10651.509999999998,-45083.05,10678688.0,-0.2462940216064453
1714593819.9856434,-30210.0,-10655.48,-45083.05,10676461.0,-0.24573326110839844
1714593820.126561,-30202.05,-10659.45,-45079.09,10675011.0,-0.24531936645507812
1714593820.2674785,-30194.1,-10659.45,-45075.14,10673005.0,-0.24483299255371094
1714593820.408396,-30186.15,-10659.45,-45067.229999999996,10671150.0,-0.24434852600097656
1714593820.5493135,-30182.18,-10659.45,-45059.32,10668960.0,-0.2438335418701172
1714593820.690231,-30182.18,-10659.45,-45051.41,10667176.0,-0.24334144592285156
1714593820.8311489,-30182.18,-10659.45,-45043.5,10665684.0,-0.24294281005859375
1714593820.9720664,-30182.18,-10659.45,-45039.54,10663285.0,-0.2423686981201172
1714593821.112984,-30186.15,-10659.45,-45035.59,10661391.0,-0.24190711975097656
1714593821.2539015,-30194.1,-10659.45,-45035.59,10659275.0,-0.24135780334472656
1714593821.394819,-30202.05,-10659.45,-45035.59,10657846.0,-0.24096107482910156
1714593821.5357366,-30210.0,-10659.45,-45039.54,10655292.0,-0.2403850555419922
1714593821.676654,-30217.95,-10655.48,-45043.5,10653753.0,-0.23994827270507812
1714593821.8175719,-30225.9,-10651.509999999998,-45047.45,10651819.0,-0.2394580841064453
1714593821.9584894,-30233.85,-10651.509999999998,-45055.36,10649971.0,-0.23896408081054688
1714593822.099407,-30237.83,-10651.509999999998,-45063.270000000004,10647769.0,-0.23847198486328125
1714593822.2403245,-30241.8,-10651.509999999998,-45071.18,10646146.0,-0.23798751831054688
1714593822.381242,-30241.8,-10651.509999999998,-45079.09,10643986.0,-0.23749923706054688
1714593822.5221596,-30241.8,-10651.509999999998,-45083.05,10642212.0,-0.23698997497558594
1714593822.663077,-30237.83,-10651.509999999998,-45087.0,10640192.0,-0.23651504516601562
1714593822.803995,-30229.88,-10651.509999999998,-45090.96,10638091.0,-0.23599815368652344
1714593822.9449124,-30221.93,-10651.509999999998,-45090.96,10636343.0,-0.23552703857421875
1714593823.08583,-30213.98,-10655.48,-45087.0,10634281.0,-0.23503875732421875
1714593823.2267475,-30206.03,-10655.48,-45083.05,10632423.0,-0.23451995849609375
1714593823.367665,-30198.08,-10659.45,-45075.14,10630670.0,-0.23409080505371094
1714593823.5085826,-30194.1,-10659.45,-45067.229999999996,10628791.0,-0.23357391357421875
1714593823.6495001,-30190.13,-10663.419999999998,-45059.32,10627023.0,-0.2331390380859375
1714593823.790418,-30186.15,-10663.419999999998,-45051.41,10625352.0,-0.23264312744140625
1714593823.9313354,-30186.15,-10663.419999999998,-45047.45,10623405.0,-0.2321796417236328
1714593824.072253,-30190.13,-10663.419999999998,-45043.5,10621597.0,-0.23172950744628906
1714593824.2131705,-30194.1,-10659.45,-45039.54,10619503.0,-0.23120498657226562
1714593824.354088,-30202.05,-10655.48,-45039.54,10617281.0,-0.2306957244873047
1714593824.4950056,-30210.0,-10655.48,-45043.5,10615359.0,-0.23017120361328125
1714593824.6359231,-30217.95,-10655.48,-45047.45,10613724.0,-0.229766845703125
1714593824.776841,-30225.9,-10655.48,-45051.41,10611354.0,-0.2291851043701172
1714593824.9177585,-30233.85,-10655.48,-45059.32,10609716.0,-0.2287616729736328
1714593825.058676,-30241.8,-10655.48,-45067.229999999996,10607738.0,-0.228240966796875
1714593825.1995935,-30245.78,-10655.48,-45075.14,10605841.0,-0.22777175903320312
1714593825.340511,-30245.78,-10655.48,-45083.05,10604111.0,-0.22731399536132812
1714593825.4814286,-30245.78,-10655.48,-45090.96,10602351.0,-0.2268390655517578
1714593825.6223462,-30241.8,-10655.48,-45094.91,10600450.0,-0.22637176513671875
1714593825.763264,-30237.83,-10655.48,-45098.87,10598530.0,-0.2258453369140625
1714593825.9041815,-30229.88,-10655.48,-45098.87,10596377.0,-0.22537994384765625
1714593826.045099,-30221.93,-10659.45,-45094.91,10594259.0,-0.22483062744140625
1714593826.1860166,-30213.98,-10663.419999999998,-45094.91,10592587.0,-0.22439956665039062
1714593826.326934,-30206.03,-10663.419999999998,-45087.0,10590806.0,-0.2238941192626953
1714593826.4678516,-30202.05,-10663.419999999998,-45079.09,10589469.0,-0.2235126495361328
1714593826.6087692,-30198.08,-10667.39,-45071.18,10587397.0,-0.22301101684570312
1714593826.749687,-30194.1,-10667.39,-45063.270000000004,10585467.0,-0.22252655029296875
1714593826.8906045,-30194.1,-10667.39,-45059.32,10583742.0,-0.22208213806152344
1714593827.031522,-30198.08,-10667.39,-45055.36,10582025.0,-0.221588134765625
1714593827.1724396,-30202.05,-10667.39,-45051.41,10579892.0,-0.22113418579101562
1714593827.313357,-30210.0,-10667.39,-45047.45,10578171.0,-0.22064781188964844
1714593827.4542747,-30217.95,-10667.39,-45047.45,10576436.0,-0.22021484375
1714593827.5951922,-30225.9,-10663.419999999998,-45051.41,10574211.0,-0.21965408325195312
1714593827.73611,-30233.85,-10663.419999999998,-45055.36,10572469.0,-0.21923065185546875
1714593827.8770275,-30241.8,-10659.45,-45063.270000000004,10570306.0,-0.2187061309814453
1714593828.017945,-30249.75,-10659.45,-45071.18,10568578.0,-0.2182464599609375
1714593828.1588626,-30253.72,-10659.45,-45079.09,10566589.0,-0.21775054931640625
1714593828.2997801,-30257.7,-10659.45,-45087.0,10565059.0,-0.2173137664794922
1714593828.4406977,-30257.7,-10659.45,-45094.91,10563192.0,-0.2168731689453125
1714593828.5816152,-30253.72,-10659.45,-45098.87,10561644.0,-0.2164154052734375
1714593828.722533,-30249.75,-10659.45,-45102.82,10560020.0,-0.21599578857421875
1714593828.8634505,-30241.8,-10659.45,-45102.82,10557967.0,-0.2154674530029297
1714593829.004368,-30233.85,-10659.45,-45102.82,10556605.0,-0.21509742736816406
1714593829.1452856,-30225.9,-10663.419999999998,-45098.87,10554586.0,-0.21459579467773438
1714593829.2862031,-30217.95,-10667.39,-45094.91,10552732.0,-0.214141845703125
1714593829.4271207,-30210.0,-10667.39,-45090.96,10550822.0,-0.21366310119628906
1714593829.5680382,-30206.03,-10671.36,-45083.05,10549312.0,-0.21323013305664062
1714593829.708956,-30202.05,-10671.36,-45075.14,10547519.0,-0.21280288696289062
1714593829.8498735,-30202.05,-10671.36,-45067.229999999996,10545813.0,-0.21232986450195312
1714593829.990791,-30202.05,-10671.36,-45063.270000000004,10543964.0,-0.2118968963623047
1714593830.1317086,-30206.03,-10667.39,-45059.32,10542187.0,-0.21140480041503906
1714593830.2726262,-30213.98,-10667.39,-45055.36,10540482.0,-0.21100234985351562
1714593830.4135437,-30221.93,-10667.39,-45055.36,10538551.0,-0.21050643920898438
1714593830.5544612,-30229.88,-10667.39,-45059.32,10536626.0,-0.21004867553710938
1714593830.695379,-30237.83,-10663.419999999998,-45063.270000000004,10535070.0,-0.2096080780029297
1714593830.8362966,-30245.78,-10663.419999999998,-45071.18,10533339.0,-0.20914649963378906
1714593830.977214,-30253.72,-10663.419999999998,-45079.09,10531387.0,-0.20871734619140625
1714593831.1181316,-30257.7,-10659.45,-45087.0,10530022.0,-0.2082843780517578
1714593831.2590492,-30261.68,-10659.45,-45094.91,10528276.0,-0.2078723907470703
