,x,y,z,temp,temp_error
1717695171.772948,989.7699999999968,4990.290000000001,25996.22,10202306.0,0.0
1717695171.906898,926.1699999999983,5589.760000000002,27645.449999999997,10248068.0,-0.10536766052246094
1717695172.0408483,838.7300000000032,6232.9000000000015,29318.42,10296198.0,-0.11549758911132812
1717695172.1747983,723.4499999999971,6923.68,31007.199999999997,10344437.0,-0.12527847290039062
1717695172.3087482,576.3700000000026,7662.0999999999985,32711.800000000003,10399470.0,-0.1365947723388672
1717695172.4426985,393.5199999999968,8452.129999999997,34424.32000000001,10455857.0,-0.14861106872558594
1717695172.5766485,174.90000000000146,9285.830000000002,36136.84,10512251.0,-0.16031265258789062
1717695172.7105985,-83.47000000000116,10167.169999999998,37841.44,10574391.0,-0.17349815368652344
1717695172.8445487,-385.5699999999997,11092.18,39526.28,10636101.0,-0.18705177307128906
1717695172.9784987,-739.3499999999985,12056.89,41179.46000000001,10695656.0,-0.20006561279296875
1717695173.1124487,-1140.8199999999997,13057.330000000002,42785.2,10758763.0,-0.21414566040039062
1717695173.246399,-1597.9500000000007,14081.589999999997,44327.64,10817475.0,-0.22806167602539062
1717695173.380349,-2110.720000000001,15117.760000000002,45791.0,10871133.0,-0.2408771514892578
1717695173.514299,-2679.1500000000015,16157.900000000001,47167.33,10922263.0,-0.2538585662841797
1717695173.648249,-3299.25,17178.190000000002,48436.89,10965249.0,-0.26581382751464844
1717695173.7821991,-3971.0200000000004,18162.75,49591.75,10998705.0,-0.27599334716796875
1717695173.9161491,-4690.5,19103.64,50627.96000000001,11025147.0,-0.28536224365234375
1717695174.0500991,-5453.700000000001,19973.07,51541.57000000001,11041319.0,-0.2930793762207031
1717695174.1840494,-6248.700000000001,20763.1,52336.520000000004,11047812.0,-0.2988090515136719
1717695174.3179994,-7067.549999999999,21457.85,53020.740000000005,11047757.0,-0.303436279296875
1717695174.4519494,-7902.299999999999,22053.35,53602.119999999995,11039869.0,-0.3064708709716797
1717695174.5858996,-8745.0,22557.54,54092.53999999999,11027087.0,-0.30810546875
1717695174.7198496,-9583.73,22966.449999999997,54499.91,11012169.0,-0.3090171813964844
1717695174.8537996,-10410.52,23291.989999999998,54836.08,10995071.0,-0.30913352966308594
1717695174.9877498,-11217.45,23538.129999999997,55116.89,10977798.0,-0.30855560302734375
1717695175.1216998,-11996.55,23712.809999999998,55350.229999999996,10961508.0,-0.30776405334472656
1717695175.2556498,-12739.869999999999,23823.97,55540.07000000001,10945944.0,-0.30670166015625
1717695175.3896,-13447.419999999998,23891.46,55698.270000000004,10932262.0,-0.3054847717285156
1717695175.52355,-14111.25,23923.22,55828.78,10919955.0,-0.3042125701904297
1717695175.6575,-14731.349999999999,23923.22,55935.57000000001,10909088.0,-0.30298423767089844
1717695175.7914503,-15307.73,23903.370000000003,56026.53,10899618.0,-0.3016681671142578
1717695175.9254003,-15844.349999999999,23867.64,56101.67999999999,10891300.0,-0.30040931701660156
1717695176.0593503,-16333.27,23823.97,56164.96000000001,10883862.0,-0.2992134094238281
1717695176.1933005,-16782.45,23768.39,56216.380000000005,10877580.0,-0.29804039001464844
1717695176.3272505,-17191.879999999997,23708.839999999997,56263.84,10871661.0,-0.29686546325683594
1717695176.4612005,-17561.55,23649.29,56303.39,10866419.0,-0.2957916259765625
1717695176.5951505,-17895.45,23585.769999999997,56338.990000000005,10861878.0,-0.2947349548339844
1717695176.7291007,-18197.55,23518.28,56370.619999999995,10857338.0,-0.29367637634277344
1717695176.8630507,-18471.82,23446.82,56394.350000000006,10853210.0,-0.29268455505371094
1717695176.9970007,-18718.28,23383.300000000003,56418.08,10849479.0,-0.29172325134277344
1717695177.130951,-18936.9,23319.78,56437.850000000006,10845758.0,-0.2907447814941406
1717695177.264901,-19135.65,23252.29,56457.630000000005,10842032.0,-0.28980445861816406
1717695177.398851,-19310.55,23180.83,56473.45,10838813.0,-0.28891754150390625
1717695177.5328012,-19469.55,23105.4,56489.270000000004,10835356.0,-0.2879829406738281
1717695177.6667511,-19604.7,23029.97,56501.130000000005,10831964.0,-0.2871131896972656
1717695177.8007011,-19723.95,22954.54,56513.0,10829069.0,-0.2862739562988281
1717695177.9346514,-19827.3,22879.11,56524.86,10825723.0,-0.28537750244140625
1717695178.0686014,-19918.72,22807.65,56532.770000000004,10822452.0,-0.2845268249511719
1717695178.2025514,-19998.22,22736.190000000002,56544.64,10819516.0,-0.28371238708496094
1717695178.3365016,-20065.8,22672.67,56552.55,10816216.0,-0.28284263610839844
1717695178.4704516,-20121.45,22609.15,56556.5,10813089.0,-0.28203773498535156
1717695178.6044016,-20169.15,22553.57,56564.41,10810270.0,-0.2812309265136719
1717695178.7383518,-20208.9,22501.96,56568.369999999995,10807112.0,-0.2804145812988281
1717695178.8723018,-20240.7,22458.29,56572.33,10803757.0,-0.27956199645996094
1717695179.0062518,-20268.53,22418.589999999997,56576.28,10801298.0,-0.27884483337402344
1717695179.140202,-20288.4,22390.800000000003,56580.240000000005,10798036.0,-0.2780189514160156
1717695179.274152,-20304.3,22366.980000000003,56580.240000000005,10794859.0,-0.27719879150390625
1717695179.408102,-20316.22,22359.04,56584.19,10792255.0,-0.27646446228027344
1717695179.5420523,-20328.15,22359.04,56588.14,10789190.0,-0.2756843566894531
1717695179.6760023,-20336.1,22359.04,56588.14,10785997.0,-0.2748832702636719
1717695179.8099523,-20344.05,22374.92,56588.14,10783538.0,-0.2741737365722656
1717695179.9439023,-20352.0,22394.769999999997,56588.14,10780407.0,-0.2733879089355469
1717695180.0778525,-20359.95,22418.589999999997,56588.14,10777275.0,-0.27259254455566406
1717695180.2118025,-20367.9,22446.379999999997,56588.14,10774573.0,-0.27187347412109375
1717695180.3457525,-20375.85,22478.14,56588.14,10771452.0,-0.2710914611816406
1717695180.4797027,-20387.78,22505.93,56588.14,10768384.0,-0.2702922821044922
1717695180.6136527,-20399.7,22525.78,56588.14,10765756.0,-0.26959991455078125
1717695180.7476027,-20411.629999999997,22541.660000000003,56584.19,10762546.0,-0.26878929138183594
1717695180.881553,-20423.55,22557.54,56584.19,10759344.0,-0.26799774169921875
1717695181.015503,-20435.48,22569.449999999997,56584.19,10756571.0,-0.2672538757324219
1717695181.149453,-20451.379999999997,22569.449999999997,56588.14,10753478.0,-0.2664794921875
1717695181.2834032,-20463.3,22565.480000000003,56588.14,10750047.0,-0.2656745910644531
1717695181.4173532,-20475.22,22553.57,56588.14,10747300.0,-0.2649421691894531
1717695181.5513031,-20483.18,22533.72,56584.19,10744010.0,-0.2641162872314453
1717695181.6852534,-20491.129999999997,22505.93,56584.19,10740823.0,-0.2633228302001953
1717695181.8192034,-20495.1,22478.14,56584.19,10738078.0,-0.26259803771972656
1717695181.9531534,-20499.08,22446.379999999997,56584.19,10734806.0,-0.2617835998535156
1717695182.0871036,-20499.08,22414.620000000003,56584.19,10731543.0,-0.26097679138183594
1717695182.2210536,-20499.08,22378.89,56580.240000000005,10728693.0,-0.26022911071777344
1717695182.3550036,-20495.1,22347.129999999997,56580.240000000005,10725598.0,-0.25943756103515625
1717695182.4889538,-20491.129999999997,22319.339999999997,56576.28,10722271.0,-0.2586250305175781
1717695182.6229038,-20487.15,22299.489999999998,56576.28,10719694.0,-0.2579231262207031
1717695182.7568538,-20479.2,22279.64,56576.28,10716467.0,-0.2571220397949219
1717695182.8908038,-20471.25,22259.79,56576.28,10713156.0,-0.25628662109375
1717695183.024754,-20459.32,22243.910000000003,56572.33,10710592.0,-0.2555999755859375
1717695183.158704,-20447.4,22239.940000000002,56568.369999999995,10707494.0,-0.2548179626464844
1717695183.292654,-20439.45,22247.879999999997,56568.369999999995,10704356.0,-0.2540130615234375
1717695183.4266043,-20431.5,22259.79,56568.369999999995,10701891.0,-0.2533416748046875
1717695183.5605543,-20423.55,22283.61,56568.369999999995,10698792.0,-0.2525615692138672
1717695183.6945043,-20419.58,22315.370000000003,56564.41,10695621.0,-0.2517547607421875
1717695183.8284545,-20415.6,22343.160000000003,56564.41,10693242.0,-0.2511005401611328
1717695183.9624045,-20415.6,22378.89,56560.46000000001,10690165.0,-0.25032997131347656
1717695184.0963545,-20419.58,22418.589999999997,56560.46000000001,10686988.0,-0.24952125549316406
1717695184.2303047,-20423.55,22454.32,56560.46000000001,10684354.0,-0.24884986877441406
1717695184.3642547,-20431.5,22482.11,56560.46000000001,10681246.0,-0.2480602264404297
1717695184.4982047,-20439.45,22501.96,56560.46000000001,10677982.0,-0.24724197387695312
1717695184.632155,-20447.4,22517.839999999997,56560.46000000001,10675166.0,-0.246551513671875
1717695184.766105,-20455.35,22529.75,56556.5,10672060.0,-0.24574661254882812
1717695184.900055,-20467.28,22541.660000000003,56556.5,10668867.0,-0.24495887756347656
1717695185.0340052,-20479.2,22549.6,56556.5,10666035.0,-0.2442340850830078
1717695185.1679552,-20487.15,22541.660000000003,56556.5,10662999.0,-0.2434520721435547
1717695185.3019052,-20495.1,22525.78,56552.55,10659714.0,-0.24263763427734375
1717695185.4358554,-20503.05,22501.96,56552.55,10656946.0,-0.24193572998046875
1717695185.5698054,-20507.03,22474.17,56552.55,10653829.0,-0.2411365509033203
1717695185.7037554,-20511.0,22450.35,56552.55,10650471.0,-0.24030685424804688
1717695185.8377056,-20511.0,22422.559999999998,56552.55,10647867.0,-0.2396259307861328
1717695185.9716556,-20511.0,22394.769999999997,56552.55,10644762.0,-0.23882675170898438
1717695186.1056056,-20507.03,22359.04,56552.55,10641626.0,-0.238037109375
1717695186.2395556,-20503.05,22331.25,56548.600000000006,10638948.0,-0.23734474182128906
1717695186.3735058,-20495.1,22307.43,56544.64,10636035.0,-0.23658180236816406
1717695186.5074558,-20487.15,22287.58,56544.64,10632805.0,-0.23575973510742188
1717695186.6414058,-20479.2,22271.699999999997,56544.64,10630330.0,-0.23511314392089844
1717695186.775356,-20471.25,22255.82,56544.64,10627301.0,-0.23433876037597656
1717695186.909306,-20459.32,22247.879999999997,56540.69,10624165.0,-0.2335376739501953
1717695187.043256,-20451.379999999997,22243.910000000003,56540.69,10621735.0,-0.23290061950683594
1717695187.1772063,-20439.45,22255.82,56540.69,10618764.0,-0.2321338653564453
1717695187.3111563,-20431.5,22271.699999999997,56536.729999999996,10615779.0,-0.23134994506835938
1717695187.4451063,-20423.55,22299.489999999998,56532.770000000004,10613531.0,-0.23073959350585938
1717695187.5790565,-20419.58,22327.28,56532.770000000004,10610766.0,-0.23001480102539062
1717695187.7130065,-20415.6,22355.07,56532.770000000004,10607575.0,-0.22921371459960938
1717695187.8469565,-20415.6,22386.83,56532.770000000004,10605203.0,-0.22859573364257812
1717695187.9809067,-20419.58,22426.53,56532.770000000004,10602178.0,-0.22784042358398438
1717695188.1148567,-20423.55,22462.260000000002,56532.770000000004,10599064.0,-0.22702789306640625
1717695188.2488067,-20427.53,22486.08,56528.82000000001,10596511.0,-0.22641372680664062
1717695188.382757,-20435.48,22505.93,56528.82000000001,10593635.0,-0.22565269470214844
1717695188.516707,-20443.43,22521.809999999998,56528.82000000001,10590406.0,-0.2248554229736328
1717695188.650657,-20455.35,22537.690000000002,56528.82000000001,10587901.0,-0.2242107391357422
1717695188.7846072,-20467.28,22545.629999999997,56524.86,10584975.0,-0.22345542907714844
1717695188.9185572,-20475.22,22545.629999999997,56524.86,10582085.0,-0.2227039337158203
1717695189.0525072,-20483.18,22541.660000000003,56524.86,10579464.0,-0.22205352783203125
1717695189.1864572,-20491.129999999997,22525.78,56524.86,10576456.0,-0.22129058837890625
1717695189.3204074,-20499.08,22501.96,56524.86,10573240.0,-0.22048377990722656
1717695189.4543574,-20503.05,22478.14,56524.86,10570509.0,-0.21982192993164062
1717695189.5883074,-20507.03,22450.35,56520.91,10567705.0,-0.21907424926757812
1717695189.7222576,-20507.03,22422.559999999998,56520.91,10564628.0,-0.218292236328125
1717695189.8562076,-20507.03,22386.83,56520.91,10562135.0,-0.2176647186279297
1717695189.9901576,-20503.05,22355.07,56520.91,10559229.0,-0.21691131591796875
1717695190.1241078,-20499.08,22327.28,56520.91,10556418.0,-0.21615982055664062
1717695190.2580578,-20491.129999999997,22303.46,56516.96000000001,10553978.0,-0.21553802490234375
1717695190.3920078,-20483.18,22287.58,56513.0,10551283.0,-0.2148303985595703
1717695190.525958,-20475.22,22267.730000000003,56513.0,10548229.0,-0.21404075622558594
1717695190.659908,-20463.3,22251.85,56513.0,10545916.0,-0.2134571075439453
1717695190.793858,-20455.35,22243.910000000003,56513.0,10543088.0,-0.2127246856689453
1717695190.9278083,-20447.4,22239.940000000002,56509.05,10540149.0,-0.21195220947265625
1717695191.0617583,-20435.48,22255.82,56509.05,10537847.0,-0.21137237548828125
1717695191.1957083,-20427.53,22275.67,56505.09,10535188.0,-0.2106761932373047
1717695191.3296585,-20419.58,22299.489999999998,56501.130000000005,10532422.0,-0.20992469787597656
1717695191.4636085,-20415.6,22327.28,56501.130000000005,10530260.0,-0.20937347412109375
1717695191.5975585,-20411.629999999997,22359.04,56501.130000000005,10527530.0,-0.20867156982421875
1717695191.7315087,-20411.629999999997,22394.769999999997,56501.130000000005,10524743.0,-0.20792198181152344
1717695191.8654587,-20415.6,22430.5,56497.17999999999,10522358.0,-0.20734786987304688
1717695191.9994087,-20419.58,22462.260000000002,56497.17999999999,10519826.0,-0.20667457580566406
1717695192.1333587,-20423.55,22494.019999999997,56497.17999999999,10516971.0,-0.2059192657470703
1717695192.267309,-20431.5,22513.870000000003,56497.17999999999,10514306.0,-0.20531845092773438
1717695192.401259,-20443.43,22533.72,56497.17999999999,10511664.0,-0.20460891723632812
1717695192.535209,-20455.35,22545.629999999997,56497.17999999999,10508668.0,-0.20386123657226562
1717695192.6691592,-20467.28,22557.54,56497.17999999999,10506183.0,-0.20325279235839844
1717695192.8031092,-20479.2,22557.54,56497.17999999999,10503518.0,-0.20255661010742188
1717695192.9370592,-20491.129999999997,22545.629999999997,56501.130000000005,10500615.0,-0.20180511474609375
1717695193.0710094,-20499.08,22521.809999999998,56501.130000000005,10497989.0,-0.2011852264404297
1717695193.2049594,-20507.03,22497.989999999998,56501.130000000005,10495367.0,-0.20049667358398438
1717695193.3389094,-20511.0,22478.14,56501.130000000005,10492407.0,-0.1997356414794922
1717695193.4728596,-20514.98,22446.379999999997,56501.130000000005,10490035.0,-0.19914627075195312
1717695193.6068096,-20514.98,22410.65,56501.130000000005,10487473.0,-0.1984729766845703
1717695193.7407596,-20511.0,22382.86,56501.130000000005,10484682.0,-0.1977252960205078
1717695193.8747098,-20507.03,22347.129999999997,56501.130000000005,10482098.0,-0.1971149444580078
1717695194.0086598,-20499.08,22315.370000000003,56497.17999999999,10479593.0,-0.1964550018310547
1717695194.1426098,-20491.129999999997,22295.519999999997,56493.22,10476938.0,-0.1957225799560547
1717695194.27656,-20483.18,22279.64,56493.22,10474708.0,-0.1951751708984375
1717695194.41051,-20471.25,22263.760000000002,56493.22,10472166.0,-0.1945056915283203
1717695194.54446,-20463.3,22251.85,56493.22,10469562.0,-0.19379425048828125
1717695194.6784103,-20455.35,22247.879999999997,56489.270000000004,10467246.0,-0.1932392120361328
1717695194.8123603,-20447.4,22251.85,56485.32000000001,10464734.0,-0.1925792694091797
1717695194.9463103,-20439.45,22267.730000000003,56481.36,10462216.0,-0.1918792724609375
1717695195.0802605,-20431.5,22283.61,56481.36,10460109.0,-0.19135284423828125
1717695195.2142105,-20427.53,22307.43,56481.36,10457657.0,-0.19072341918945312
1717695195.3481605,-20423.55,22335.22,56481.36,10455427.0,-0.1900634765625
1717695195.4821105,-20419.58,22370.949999999997,56477.41,10453204.0,-0.18952560424804688
1717695195.6160607,-20419.58,22406.68,56473.45,10450808.0,-0.18891143798828125
1717695195.7500107,-20423.55,22446.379999999997,56473.45,10448552.0,-0.18825340270996094
1717695195.8839607,-20427.53,22482.11,56477.41,10446093.0,-0.1877002716064453
1717695196.017911,-20435.48,22505.93,56477.41,10443601.0,-0.1870574951171875
1717695196.151861,-20443.43,22529.75,56477.41,10441018.0,-0.18637847900390625
1717695196.285811,-20451.379999999997,22545.629999999997,56477.41,10438647.0,-0.18581199645996094
1717695196.4197612,-20463.3,22557.54,56477.41,10436118.0,-0.18518447875976562
1717695196.5537112,-20475.22,22561.510000000002,56477.41,10433532.0,-0.18450355529785156
1717695196.6876612,-20487.15,22557.54,56477.41,10431015.0,-0.18390274047851562
1717695196.8216114,-20499.08,22541.660000000003,56477.41,10428370.0,-0.1832561492919922
1717695196.9555614,-20507.03,22525.78,56477.41,10425844.0,-0.18258285522460938
1717695197.0895114,-20514.98,22501.96,56477.41,10423547.0,-0.18201065063476562
1717695197.2234616,-20518.95,22474.17,56477.41,10421029.0,-0.18137550354003906
1717695197.3574116,-20522.93,22442.410000000003,56477.41,10418681.0,-0.18072128295898438
1717695197.4913616,-20522.93,22410.65,56477.41,10416147.0,-0.1801166534423828
1717695197.6253119,-20522.93,22378.89,56477.41,10413674.0,-0.17949867248535156
1717695197.7592618,-20514.98,22347.129999999997,56473.45,10411312.0,-0.17885208129882812
1717695197.8932118,-20507.03,22315.370000000003,56469.5,10409020.0,-0.1782703399658203
1717695198.027162,-20499.08,22291.550000000003,56469.5,10406664.0,-0.17768287658691406
1717695198.161112,-20491.129999999997,22275.67,56469.5,10404578.0,-0.17705345153808594
1717695198.295062,-20483.18,22259.79,56469.5,10402171.0,-0.17649078369140625
1717695198.429012,-20471.25,22247.879999999997,56469.5,10399777.0,-0.1758747100830078
1717695198.5629623,-20459.32,22243.910000000003,56465.53999999999,10397749.0,-0.17528724670410156
1717695198.6969123,-20451.379999999997,22251.85,56461.58,10395579.0,-0.17474746704101562
1717695198.8308623,-20443.43,22267.730000000003,56461.58,10393197.0,-0.1741466522216797
1717695198.9648125,-20435.48,22287.58,56461.58,10391336.0,-0.17357444763183594
1717695199.0987625,-20431.5,22311.4,56461.58,10389054.0,-0.17303466796875
1717695199.2327125,-20427.53,22339.190000000002,56457.630000000005,10386603.0,-0.17242431640625
1717695199.3666627,-20427.53,22374.92,56457.630000000005,10385001.0,-0.1719207763671875
1717695199.5006127,-20427.53,22414.620000000003,56457.630000000005,10382865.0,-0.17138099670410156
1717695199.6345627,-20431.5,22446.379999999997,56457.630000000005,10380431.0,-0.17078590393066406
1717695199.768513,-20435.48,22482.11,56461.58,10378650.0,-0.17026138305664062
1717695199.902463,-20443.43,22513.870000000003,56465.53999999999,10375946.0,-0.1696605682373047
1717695200.036413,-20451.379999999997,22537.690000000002,56465.53999999999,10373548.0,-0.16906166076660156
1717695200.1703632,-20459.32,22549.6,56465.53999999999,10371642.0,-0.16853713989257812
1717695200.3043132,-20471.25,22557.54,56465.53999999999,10369131.0,-0.1679229736328125
1717695200.4382632,-20483.18,22565.480000000003,56465.53999999999,10366553.0,-0.1673107147216797
1717695200.5722134,-20495.1,22561.510000000002,56465.53999999999,10364636.0,-0.1667804718017578
1717695200.7061634,-20503.05,22553.57,56465.53999999999,10362215.0,-0.16617584228515625
1717695200.8401134,-20511.0,22537.690000000002,56465.53999999999,10359791.0,-0.16558074951171875
1717695200.9740636,-20514.98,22513.870000000003,56465.53999999999,10357713.0,-0.16503524780273438
1717695201.1080136,-20522.93,22486.08,56469.5,10355449.0,-0.16444969177246094
1717695201.2419636,-20526.9,22454.32,56469.5,10352822.0,-0.1638202667236328
1717695201.3759139,-20526.9,22422.559999999998,56469.5,10350942.0,-0.16331100463867188
1717695201.5098639,-20522.93,22390.800000000003,56465.53999999999,10348615.0,-0.16271209716796875
1717695201.6438138,-20518.95,22359.04,56465.53999999999,10346571.0,-0.16217994689941406
1717695201.7777638,-20511.0,22331.25,56461.58,10344461.0,-0.1616191864013672
