,x,y,z,temp,temp_error
1717695336.2527368,1025.550000000003,5113.360000000001,25917.120000000003,10188697.0,0.0
1717695336.3867152,961.9499999999971,5720.769999999997,27566.35,10234797.0,-0.1016693115234375
1717695336.5206933,874.5,6371.8499999999985,29239.32,10283530.0,-0.11190414428710938
1717695336.6546717,759.2300000000032,7070.57,30932.050000000003,10332214.0,-0.12180900573730469
1717695336.78865,612.1500000000015,7816.93,32640.620000000003,10387459.0,-0.13312149047851562
1717695336.9226282,429.3000000000029,8610.93,34357.09,10444859.0,-0.1453533172607422
1717695337.0566065,210.66999999999825,9456.54,36073.57000000001,10501748.0,-0.1571941375732422
1717695337.1905847,-51.669999999998254,10345.82,37782.119999999995,10564682.0,-0.17049598693847656
1717695337.324563,-357.75,11278.769999999997,39470.91,10627529.0,-0.1842937469482422
1717695337.4585414,-711.5200000000004,12251.419999999998,41128.05,10687960.0,-0.19746017456054688
1717695337.5925195,-1116.9700000000012,13259.800000000003,42737.740000000005,10751565.0,-0.2117023468017578
1717695337.726498,-1574.0999999999985,14295.970000000001,44284.14,10811305.0,-0.2258167266845703
1717695337.8604763,-2086.869999999999,15340.080000000002,45751.44,10865516.0,-0.23879432678222656
1717695337.9944544,-2655.2999999999993,16388.160000000003,47127.78,10917293.0,-0.2519512176513672
1717695338.1284328,-3279.369999999999,17416.39,48397.350000000006,10960627.0,-0.26401710510253906
1717695338.262411,-3955.119999999999,18408.89,49552.21000000001,10994310.0,-0.27428245544433594
1717695338.3963892,-4678.57,19349.78,50588.41,11021259.0,-0.2838115692138672
1717695338.5303676,-5445.75,20223.18,51502.020000000004,11037369.0,-0.291595458984375
1717695338.6643457,-6244.720000000001,21013.21,52296.97,11043641.0,-0.2973346710205078
1717695338.798324,-7067.549999999999,21711.93,52977.229999999996,11043384.0,-0.3019828796386719
1717695338.9323025,-7906.27,22311.4,53554.66,11035179.0,-0.3050079345703125
1717695339.0662806,-8752.95,22811.620000000003,54037.17,11022090.0,-0.3066387176513672
1717695339.200259,-9595.650000000001,23224.5,54440.58,11006754.0,-0.3075237274169922
1717695339.3342373,-10426.419999999998,23550.04,54772.8,10989237.0,-0.3075695037841797
1717695339.4682155,-11233.349999999999,23796.18,55045.69,10971720.0,-0.3069877624511719
1717695339.6021938,-12012.45,23970.86,55271.130000000005,10955077.0,-0.3061485290527344
1717695339.7361722,-12759.75,24082.019999999997,55457.020000000004,10939417.0,-0.3050708770751953
1717695339.8701503,-13467.3,24141.57,55611.259999999995,10925503.0,-0.30382728576660156
1717695340.0041287,-14131.119999999999,24169.36,55737.82000000001,10913337.0,-0.30257225036621094
1717695340.1381068,-14751.23,24173.33,55844.600000000006,10902391.0,-0.3013038635253906
1717695340.2720852,-15327.599999999999,24149.510000000002,55931.61,10893039.0,-0.30002593994140625
1717695340.4060636,-15860.25,24113.78,56006.759999999995,10884789.0,-0.29876708984375
1717695340.5400417,-16349.169999999998,24066.14,56070.03999999999,10877413.0,-0.29756736755371094
1717695340.67402,-16794.379999999997,24010.559999999998,56125.41,10871099.0,-0.29640769958496094
1717695340.8079984,-17203.8,23947.04,56168.92,10865367.0,-0.2952594757080078
1717695340.9419765,-17573.48,23887.489999999998,56208.46000000001,10860040.0,-0.2941436767578125
1717695341.075955,-17907.379999999997,23823.97,56244.07000000001,10855333.0,-0.2931060791015625
1717695341.2099333,-18205.5,23752.510000000002,56271.75,10851050.0,-0.2920665740966797
1717695341.3439114,-18475.8,23685.019999999997,56299.42,10846791.0,-0.2910480499267578
1717695341.4778898,-18718.28,23617.53,56319.21000000001,10842968.0,-0.29009246826171875
1717695341.611868,-18936.9,23554.010000000002,56338.990000000005,10839326.0,-0.2891197204589844
1717695341.7458463,-19131.68,23486.519999999997,56358.75,10835535.0,-0.28814125061035156
1717695341.8798246,-19306.58,23415.059999999998,56374.57000000001,10832232.0,-0.28727149963378906
1717695342.0138028,-19461.6,23343.6,56386.44,10828946.0,-0.2863616943359375
1717695342.1477811,-19596.75,23268.17,56402.259999999995,10825561.0,-0.28544044494628906
1717695342.2817595,-19716.0,23200.68,56414.130000000005,10822546.0,-0.2846393585205078
1717695342.4157376,-19819.35,23125.25,56425.990000000005,10819257.0,-0.2837543487548828
1717695342.549716,-19910.78,23049.82,56433.899999999994,10815952.0,-0.2828521728515625
1717695342.6836944,-19986.3,22978.36,56441.82000000001,10813028.0,-0.2820854187011719
1717695342.8176725,-20049.9,22910.870000000003,56449.72,10809982.0,-0.28124427795410156
1717695342.9516509,-20105.55,22847.35,56457.630000000005,10806716.0,-0.28037261962890625
1717695343.085629,-20153.25,22791.769999999997,56461.58,10803760.0,-0.2796001434326172
1717695343.2196074,-20189.03,22748.1,56465.53999999999,10800682.0,-0.2787914276123047
1717695343.3535857,-20220.82,22708.4,56469.5,10797468.0,-0.27791786193847656
1717695343.4875638,-20244.68,22668.699999999997,56473.45,10794743.0,-0.2772102355957031
1717695343.6215422,-20264.55,22632.97,56477.41,10791557.0,-0.27639198303222656
1717695343.7555206,-20280.45,22613.120000000003,56481.36,10788535.0,-0.27554893493652344
1717695343.8894987,-20292.379999999997,22605.18,56481.36,10785562.0,-0.27482032775878906
1717695344.023477,-20300.32,22605.18,56481.36,10782557.0,-0.27404022216796875
1717695344.1574554,-20308.28,22609.15,56481.36,10779629.0,-0.2732048034667969
1717695344.2914336,-20316.22,22621.059999999998,56481.36,10776736.0,-0.27249908447265625
1717695344.425412,-20324.18,22644.879999999997,56485.32000000001,10773759.0,-0.271728515625
1717695344.55939,-20332.129999999997,22668.699999999997,56485.32000000001,10770940.0,-0.2709369659423828
1717695344.6933684,-20340.08,22700.46,56481.36,10768141.0,-0.27024269104003906
1717695344.8273468,-20348.03,22732.22,56481.36,10765010.0,-0.26944923400878906
1717695344.961325,-20359.95,22760.010000000002,56481.36,10762094.0,-0.2686500549316406
1717695345.0953033,-20375.85,22779.86,56485.32000000001,10759097.0,-0.26793670654296875
1717695345.2292817,-20387.78,22795.739999999998,56485.32000000001,10755812.0,-0.267120361328125
1717695345.3632598,-20399.7,22811.620000000003,56481.36,10752838.0,-0.2663383483886719
1717695345.4972382,-20415.6,22827.5,56481.36,10749822.0,-0.2655754089355469
1717695345.6312165,-20431.5,22835.440000000002,56481.36,10746522.0,-0.26477813720703125
1717695345.7651947,-20443.43,22831.47,56481.36,10743565.0,-0.2639961242675781
1717695345.899173,-20455.35,22815.589999999997,56481.36,10740465.0,-0.26322364807128906
1717695346.0331511,-20467.28,22799.71,56481.36,10737191.0,-0.2624244689941406
1717695346.1671295,-20475.22,22775.89,56481.36,10734283.0,-0.2616462707519531
1717695346.301108,-20479.2,22752.07,56477.41,10731056.0,-0.2608451843261719
1717695346.435086,-20487.15,22724.28,56477.41,10727795.0,-0.2600364685058594
1717695346.5690644,-20487.15,22688.550000000003,56477.41,10724966.0,-0.2592964172363281
1717695346.7030427,-20487.15,22648.85,56477.41,10721759.0,-0.2584857940673828
1717695346.8370209,-20483.18,22617.089999999997,56477.41,10718493.0,-0.2576866149902344
1717695346.9709992,-20479.2,22589.300000000003,56473.45,10715655.0,-0.2569293975830078
1717695347.1049774,-20471.25,22565.480000000003,56469.5,10712638.0,-0.2561511993408203
1717695347.2389557,-20467.28,22545.629999999997,56469.5,10709287.0,-0.25531959533691406
1717695347.372934,-20459.32,22525.78,56469.5,10706670.0,-0.25463104248046875
1717695347.5069122,-20451.379999999997,22513.870000000003,56469.5,10703559.0,-0.2538337707519531
1717695347.6408906,-20443.43,22505.93,56469.5,10700191.0,-0.25299072265625
1717695347.774869,-20431.5,22501.96,56469.5,10697604.0,-0.25230979919433594
1717695347.908847,-20423.55,22509.9,56465.53999999999,10694529.0,-0.2515239715576172
1717695348.0428255,-20415.6,22517.839999999997,56461.58,10691346.0,-0.2507057189941406
1717695348.1768038,-20407.65,22541.660000000003,56461.58,10688782.0,-0.25003814697265625
1717695348.310782,-20403.68,22569.449999999997,56461.58,10685887.0,-0.24927330017089844
1717695348.4447603,-20399.7,22601.21,56457.630000000005,10682524.0,-0.2484264373779297
1717695348.5787385,-20395.72,22636.940000000002,56453.67,10680118.0,-0.24779129028320312
1717695348.7127168,-20395.72,22676.64,56453.67,10677083.0,-0.24701690673828125
1717695348.8466952,-20399.7,22708.4,56453.67,10673862.0,-0.246185302734375
1717695348.9806733,-20407.65,22736.190000000002,56453.67,10671079.0,-0.24551773071289062
1717695349.1146517,-20415.6,22756.04,56453.67,10668006.0,-0.24471664428710938
1717695349.24863,-20423.55,22771.92,56453.67,10664650.0,-0.2438793182373047
1717695349.3826082,-20431.5,22783.83,56453.67,10661769.0,-0.24318313598632812
1717695349.5165865,-20443.43,22795.739999999998,56453.67,10658668.0,-0.24238014221191406
1717695349.650565,-20455.35,22799.71,56453.67,10655391.0,-0.24155426025390625
1717695349.784543,-20467.28,22799.71,56453.67,10652543.0,-0.24085235595703125
1717695349.9185214,-20475.22,22787.800000000003,56453.67,10649507.0,-0.24006080627441406
1717695350.0524995,-20483.18,22763.980000000003,56453.67,10646291.0,-0.2392292022705078
1717695350.186478,-20487.15,22736.190000000002,56453.67,10643360.0,-0.2385272979736328
1717695350.3204563,-20491.129999999997,22708.4,56453.67,10640259.0,-0.23772621154785156
1717695350.4544344,-20495.1,22680.61,56453.67,10637076.0,-0.2368946075439453
1717695350.5884128,-20495.1,22648.85,56453.67,10634188.0,-0.23619651794433594
1717695350.7223911,-20491.129999999997,22613.120000000003,56453.67,10631160.0,-0.23540687561035156
1717695350.8563693,-20483.18,22581.36,56449.72,10627891.0,-0.2345733642578125
1717695350.9903476,-20475.22,22557.54,56449.72,10625299.0,-0.23389434814453125
1717695351.124326,-20467.28,22533.72,56449.72,10622277.0,-0.2331371307373047
1717695351.258304,-20459.32,22517.839999999997,56449.72,10619186.0,-0.23229026794433594
1717695351.3922825,-20451.379999999997,22501.96,56445.770000000004,10616587.0,-0.231658935546875
1717695351.5262606,-20439.45,22490.050000000003,56445.770000000004,10613639.0,-0.23088645935058594
1717695351.660239,-20427.53,22486.08,56445.770000000004,10610459.0,-0.23004913330078125
1717695351.7942173,-20419.58,22490.050000000003,56445.770000000004,10607927.0,-0.22942161560058594
1717695351.9281955,-20411.629999999997,22501.96,56445.770000000004,10604991.0,-0.22866058349609375
1717695352.0621738,-20403.68,22525.78,56445.770000000004,10602037.0,-0.2278575897216797
1717695352.1961522,-20395.72,22549.6,56441.82000000001,10599546.0,-0.22723388671875
1717695352.3301303,-20391.75,22577.39,56437.850000000006,10596811.0,-0.22650527954101562
1717695352.4641087,-20391.75,22609.15,56437.850000000006,10593880.0,-0.2257099151611328
1717695352.598087,-20391.75,22644.879999999997,56437.850000000006,10591374.0,-0.22509765625
1717695352.7320652,-20395.72,22680.61,56437.850000000006,10588314.0,-0.2243366241455078
1717695352.8660436,-20399.7,22716.339999999997,56437.850000000006,10585638.0,-0.2235851287841797
1717695353.0000217,-20403.68,22744.129999999997,56433.899999999994,10582683.0,-0.2228984832763672
1717695353.134,-20411.629999999997,22767.949999999997,56433.899999999994,10579813.0,-0.22216224670410156
1717695353.2679784,-20423.55,22779.86,56433.899999999994,10576988.0,-0.22140884399414062
1717695353.4019566,-20435.48,22795.739999999998,56433.899999999994,10573977.0,-0.2206897735595703
1717695353.535935,-20447.4,22807.65,56433.899999999994,10571056.0,-0.21995925903320312
1717695353.6699133,-20459.32,22807.65,56433.899999999994,10568170.0,-0.2191905975341797
1717695353.8038914,-20467.28,22795.739999999998,56433.899999999994,10565202.0,-0.21846961975097656
1717695353.9378698,-20475.22,22779.86,56433.899999999994,10562344.0,-0.21774864196777344
1717695354.0718482,-20483.18,22760.010000000002,56433.899999999994,10559473.0,-0.21698379516601562
1717695354.2058263,-20487.15,22732.22,56433.899999999994,10556604.0,-0.2162761688232422
1717695354.3398046,-20491.129999999997,22700.46,56433.899999999994,10553665.0,-0.2155437469482422
1717695354.4737828,-20491.129999999997,22668.699999999997,56433.899999999994,10550902.0,-0.21479225158691406
1717695354.6077611,-20491.129999999997,22632.97,56433.899999999994,10548008.0,-0.214080810546875
1717695354.7417395,-20487.15,22593.269999999997,56429.94,10544984.0,-0.21334075927734375
1717695354.8757176,-20479.2,22569.449999999997,56429.94,10542543.0,-0.2126445770263672
1717695355.009696,-20475.22,22545.629999999997,56425.990000000005,10539666.0,-0.21192550659179688
1717695355.1436744,-20467.28,22521.809999999998,56425.990000000005,10536659.0,-0.21119117736816406
1717695355.2776525,-20455.35,22501.96,56422.03,10534183.0,-0.2104778289794922
1717695355.4116309,-20447.4,22486.08,56422.03,10531540.0,-0.2098255157470703
1717695355.5456092,-20435.48,22482.11,56422.03,10528487.0,-0.209075927734375
1717695355.6795874,-20427.53,22478.14,56422.03,10526287.0,-0.2084369659423828
1717695355.8135657,-20419.58,22486.08,56422.03,10523497.0,-0.207733154296875
1717695355.9475439,-20411.629999999997,22505.93,56418.08,10520677.0,-0.2070140838623047
1717695356.0815222,-20403.68,22529.75,56418.08,10518554.0,-0.2064037322998047
1717695356.2155006,-20399.7,22553.57,56414.130000000005,10515870.0,-0.20572280883789062
1717695356.3494787,-20395.72,22589.300000000003,56414.130000000005,10512999.0,-0.2049999237060547
1717695356.483457,-20395.72,22625.03,56414.130000000005,10510851.0,-0.20441246032714844
1717695356.6174355,-20395.72,22660.760000000002,56410.17,10508220.0,-0.20372581481933594
1717695356.7514136,-20399.7,22696.489999999998,56406.21000000001,10505479.0,-0.20300674438476562
1717695356.885392,-20403.68,22728.25,56406.21000000001,10503276.0,-0.20244598388671875
1717695357.0193703,-20411.629999999997,22752.07,56406.21000000001,10500546.0,-0.2017383575439453
1717695357.1533484,-20419.58,22771.92,56410.17,10497464.0,-0.20100021362304688
1717695357.2873268,-20431.5,22787.800000000003,56410.17,10495203.0,-0.2004108428955078
1717695357.421305,-20443.43,22799.71,56410.17,10492363.0,-0.1996917724609375
1717695357.5552833,-20455.35,22799.71,56410.17,10489381.0,-0.1989459991455078
1717695357.6892617,-20467.28,22795.739999999998,56410.17,10486846.0,-0.19832801818847656
1717695357.8232398,-20475.22,22783.83,56410.17,10484056.0,-0.1976184844970703
1717695357.9572182,-20483.18,22767.949999999997,56410.17,10481179.0,-0.19687271118164062
1717695358.0911965,-20491.129999999997,22744.129999999997,56410.17,10478846.0,-0.1962909698486328
1717695358.2251747,-20495.1,22720.309999999998,56410.17,10476215.0,-0.19559669494628906
1717695358.359153,-20499.08,22684.58,56410.17,10473475.0,-0.19486618041992188
1717695358.4931314,-20499.08,22652.82,56410.17,10470937.0,-0.19426536560058594
1717695358.6271095,-20499.08,22617.089999999997,56410.17,10468335.0,-0.19358062744140625
1717695358.761088,-20495.1,22581.36,56410.17,10465525.0,-0.19284820556640625
1717695358.895066,-20487.15,22553.57,56406.21000000001,10463090.0,-0.19224166870117188
1717695359.0290444,-20479.2,22533.72,56402.259999999995,10460572.0,-0.19159317016601562
1717695359.1630228,-20471.25,22517.839999999997,56402.259999999995,10458023.0,-0.19086837768554688
1717695359.297001,-20463.3,22497.989999999998,56402.259999999995,10455608.0,-0.1903057098388672
1717695359.4309793,-20451.379999999997,22482.11,56402.259999999995,10452980.0,-0.18963241577148438
1717695359.5649576,-20439.45,22478.14,56398.3,10450618.0,-0.18895530700683594
1717695359.6989357,-20427.53,22478.14,56398.3,10448349.0,-0.18839454650878906
1717695359.832914,-20419.58,22490.050000000003,56398.3,10445752.0,-0.18773269653320312
1717695359.9668925,-20411.629999999997,22509.9,56394.350000000006,10443390.0,-0.18706321716308594
1717695360.1008706,-20403.68,22533.72,56394.350000000006,10441229.0,-0.18651962280273438
1717695360.234849,-20399.7,22557.54,56394.350000000006,10438548.0,-0.18585777282714844
1717695360.368827,-20395.72,22593.269999999997,56390.39,10436538.0,-0.18526268005371094
1717695360.5028055,-20395.72,22629.0,56386.44,10434290.0,-0.1846923828125
1717695360.6367838,-20399.7,22664.730000000003,56386.44,10431611.0,-0.1840381622314453
1717695360.770762,-20403.68,22700.46,56386.44,10429612.0,-0.1834564208984375
1717695360.9047403,-20411.629999999997,22732.22,56390.39,10427195.0,-0.1828632354736328
1717695361.0387187,-20419.58,22756.04,56390.39,10424364.0,-0.1821765899658203
1717695361.1726968,-20427.53,22775.89,56390.39,10422206.0,-0.181610107421875
1717695361.3066752,-20435.48,22791.769999999997,56390.39,10419626.0,-0.18095970153808594
1717695361.4406536,-20447.4,22799.71,56390.39,10416855.0,-0.18029403686523438
1717695361.5746317,-20459.32,22803.68,56394.350000000006,10414742.0,-0.1797313690185547
1717695361.70861,-20471.25,22803.68,56398.3,10412131.0,-0.1790637969970703
1717695361.8425882,-20483.18,22791.769999999997,56398.3,10409317.0,-0.1784076690673828
1717695361.9765666,-20491.129999999997,22771.92,56398.3,10407264.0,-0.1778411865234375
1717695362.110545,-20499.08,22748.1,56398.3,10404678.0,-0.17717552185058594
1717695362.244523,-20503.05,22720.309999999998,56394.350000000006,10402035.0,-0.17651748657226562
1717695362.3785014,-20507.03,22692.519999999997,56394.350000000006,10400013.0,-0.17598533630371094
1717695362.5124798,-20507.03,22660.760000000002,56394.350000000006,10397496.0,-0.17532730102539062
1717695362.646458,-20503.05,22625.03,56390.39,10394825.0,-0.1746654510498047
1717695362.7804363,-20499.08,22589.300000000003,56386.44,10392796.0,-0.17412948608398438
1717695362.9144146,-20491.129999999997,22557.54,56386.44,10390416.0,-0.1735057830810547
1717695363.0483928,-20483.18,22533.72,56386.44,10387755.0,-0.1728343963623047
1717695363.1823711,-20475.22,22513.870000000003,56386.44,10385828.0,-0.17232894897460938
1717695363.3163493,-20467.28,22497.989999999998,56382.490000000005,10383464.0,-0.17171859741210938
1717695363.4503276,-20455.35,22486.08,56382.490000000005,10380920.0,-0.1710338592529297
1717695363.584306,-20443.43,22478.14,56378.53,10379083.0,-0.1705760955810547
1717695363.7182841,-20431.5,22478.14,56378.53,10376911.0,-0.16998672485351562
1717695363.8522625,-20419.58,22486.08,56374.57000000001,10374511.0,-0.1693267822265625
1717695363.9862409,-20411.629999999997,22505.93,56374.57000000001,10372744.0,-0.1688823699951172
1717695364.120219,-20407.65,22529.75,56374.57000000001,10370439.0,-0.16829490661621094
1717695364.2541974,-20403.68,22561.510000000002,56370.619999999995,10368142.0,-0.16765403747558594
1717695364.3881757,-20399.7,22593.269999999997,56370.619999999995,10366202.0,-0.1671905517578125
1717695364.5221539,-20399.7,22625.03,56370.619999999995,10364125.0,-0.16663169860839844
1717695364.6561322,-20399.7,22660.760000000002,56370.619999999995,10361790.0,-0.16599273681640625
1717695364.7901103,-20403.68,22700.46,56370.619999999995,10359828.0,-0.16553306579589844
1717695364.9240887,-20411.629999999997,22732.22,56370.619999999995,10357506.0,-0.16494369506835938
1717695365.058067,-20419.58,22760.010000000002,56370.619999999995,10355287.0,-0.1643218994140625
1717695365.1920452,-20431.5,22779.86,56374.57000000001,10353132.0,-0.16382980346679688
1717695365.3260236,-20439.45,22795.739999999998,56374.57000000001,10350711.0,-0.16323280334472656
1717695365.460002,-20451.379999999997,22807.65,56378.53,10348423.0,-0.1626129150390625
1717695365.59398,-20463.3,22811.620000000003,56378.53,10346133.0,-0.1620807647705078
1717695365.7279584,-20475.22,22807.65,56378.53,10343742.0,-0.16149139404296875
1717695365.8619366,-20487.15,22795.739999999998,56378.53,10341511.0,-0.16088294982910156
1717695365.995915,-20495.1,22779.86,56378.53,10339383.0,-0.1603527069091797
1717695366.1298933,-20503.05,22760.010000000002,56378.53,10337003.0,-0.15976905822753906
1717695366.2638714,-20507.03,22732.22,56378.53,10334872.0,-0.1591815948486328
