,x,y,z,temp,temp_error
1717695431.8087814,-13733.619999999999,-11433.599999999999,-23528.3,10203782.0,0.0
1717695431.9427502,-14397.45,-12124.380000000001,-25137.98,10252502.0,-0.10371017456054688
1717695432.076719,-15045.369999999999,-12819.130000000001,-26771.4,10307297.0,-0.11497306823730469
1717695432.2106879,-15673.419999999998,-13513.880000000001,-28416.68,10359836.0,-0.1259784698486328
1717695432.344657,-16277.619999999999,-14212.599999999999,-30065.91,10416409.0,-0.13757705688476562
1717695432.4786258,-16854.0,-14907.349999999999,-31707.24,10476176.0,-0.15044212341308594
1717695432.6125946,-17398.58,-15602.099999999999,-33324.83,10532312.0,-0.1627368927001953
1717695432.7465634,-17907.379999999997,-16284.939999999999,-34902.88,10590094.0,-0.17536163330078125
1717695432.8805323,-18380.4,-16959.84,-36433.46,10647545.0,-0.18863677978515625
1717695433.014501,-18813.68,-17614.89,-37896.81,10698192.0,-0.2007598876953125
1717695433.14847,-19207.2,-18250.09,-39281.06,10747789.0,-0.2128887176513672
1717695433.2824388,-19560.98,-18857.5,-40570.39,10792756.0,-0.2247753143310547
1717695433.4164078,-19871.03,-19437.120000000003,-41760.85,10828572.0,-0.2349872589111328
1717695433.5503767,-20137.35,-19977.04,-42840.56,10860171.0,-0.24465179443359375
1717695433.6843455,-20367.9,-20477.260000000002,-43809.54,10884650.0,-0.2533721923828125
1717695433.8183143,-20558.7,-20933.809999999998,-44663.82,10899234.0,-0.2602214813232422
1717695433.9522831,-20713.72,-21342.72,-45411.31,10908597.0,-0.26609230041503906
1717695434.086252,-20836.95,-21703.989999999998,-46059.93,10911602.0,-0.2708721160888672
1717695434.2202208,-20928.379999999997,-22025.559999999998,-46617.59,10908186.0,-0.274078369140625
1717695434.3541899,-20991.98,-22303.46,-47092.19,10902610.0,-0.27667236328125
1717695434.4881587,-21035.7,-22533.72,-47495.6,10894261.0,-0.27848052978515625
1717695434.6221275,-21059.55,-22732.22,-47835.729999999996,10883820.0,-0.279388427734375
1717695434.7560964,-21067.5,-22906.9,-48124.44,10873728.0,-0.2800579071044922
1717695434.8900652,-21059.55,-23057.760000000002,-48365.7,10863894.0,-0.2804126739501953
1717695435.024034,-21035.7,-23188.77,-48567.4,10854189.0,-0.2803153991699219
1717695435.1580029,-21003.9,-23299.93,-48737.46,10845618.0,-0.2802009582519531
1717695435.291972,-20960.18,-23395.21,-48883.8,10837551.0,-0.2799358367919922
1717695435.4259408,-20908.5,-23474.61,-49002.45,10830243.0,-0.2794513702392578
1717695435.5599096,-20852.85,-23550.04,-49105.28,10823570.0,-0.2789897918701172
1717695435.6938784,-20793.22,-23613.559999999998,-49192.29,10817857.0,-0.2785072326660156
1717695435.8278472,-20729.629999999997,-23661.2,-49263.479999999996,10812372.0,-0.2778663635253906
1717695435.961816,-20666.03,-23696.93,-49322.81,10807450.0,-0.2772789001464844
1717695436.095785,-20606.4,-23720.75,-49374.22,10802913.0,-0.2766742706298828
1717695436.2297537,-20546.78,-23740.6,-49421.68,10798293.0,-0.27594566345214844
1717695436.3637228,-20491.129999999997,-23752.510000000002,-49461.240000000005,10794315.0,-0.2752704620361328
1717695436.4976916,-20439.45,-23756.48,-49492.880000000005,10790515.0,-0.27462005615234375
1717695436.6316605,-20395.72,-23752.510000000002,-49516.6,10786810.0,-0.2738800048828125
1717695436.7656293,-20359.95,-23744.57,-49540.33,10782941.0,-0.2731189727783203
1717695436.8995981,-20328.15,-23732.66,-49560.11,10779249.0,-0.2723884582519531
1717695437.033567,-20308.28,-23712.809999999998,-49575.93,10775968.0,-0.2716522216796875
1717695437.1675358,-20292.379999999997,-23692.96,-49587.79,10772232.0,-0.2708320617675781
1717695437.3015049,-20284.43,-23673.11,-49599.66,10768699.0,-0.27007293701171875
1717695437.4354737,-20284.43,-23653.260000000002,-49607.57,10765453.0,-0.2692985534667969
1717695437.5694425,-20288.4,-23633.41,-49615.479999999996,10761844.0,-0.26845550537109375
1717695437.7034113,-20300.32,-23613.559999999998,-49623.39,10758306.0,-0.26767921447753906
1717695437.8373802,-20312.25,-23601.65,-49627.34,10755143.0,-0.26688385009765625
1717695437.971349,-20324.18,-23589.739999999998,-49631.3,10751821.0,-0.2660675048828125
1717695438.1053178,-20336.1,-23581.8,-49635.25,10748391.0,-0.2652587890625
1717695438.2392867,-20348.03,-23569.89,-49639.21,10745455.0,-0.2645092010498047
1717695438.3732557,-20359.95,-23561.95,-49643.16,10741988.0,-0.26364898681640625
1717695438.5072246,-20371.879999999997,-23557.98,-49647.119999999995,10738615.0,-0.2628326416015625
1717695438.6411934,-20379.82,-23565.92,-49643.16,10735797.0,-0.2621021270751953
1717695438.7751622,-20379.82,-23581.8,-49647.119999999995,10732770.0,-0.2612934112548828
1717695438.909131,-20375.85,-23593.71,-49647.119999999995,10729788.0,-0.2605171203613281
1717695439.0430999,-20363.93,-23605.620000000003,-49647.119999999995,10727133.0,-0.2598228454589844
1717695439.1770687,-20352.0,-23621.5,-49651.08,10724154.0,-0.2590351104736328
1717695439.3110378,-20332.129999999997,-23641.35,-49651.08,10721027.0,-0.25824546813964844
1717695439.4450066,-20312.25,-23661.2,-49651.08,10718441.0,-0.2575664520263672
1717695439.5789754,-20284.43,-23681.05,-49651.08,10715526.0,-0.2567920684814453
1717695439.7129443,-20256.6,-23692.96,-49655.03,10712510.0,-0.2560100555419922
1717695439.846913,-20228.78,-23700.9,-49658.979999999996,10709787.0,-0.25533294677734375
1717695439.980882,-20204.93,-23708.84,-49662.94,10706927.0,-0.2545623779296875
1717695440.1148508,-20181.08,-23712.809999999998,-49666.89,10703828.0,-0.2537860870361328
1717695440.2488196,-20157.22,-23712.809999999998,-49666.89,10700921.0,-0.25307655334472656
1717695440.3827887,-20137.35,-23708.84,-49666.89,10697902.0,-0.2522850036621094
1717695440.5167575,-20125.43,-23692.96,-49670.85,10694555.0,-0.25147438049316406
1717695440.6507263,-20117.48,-23681.05,-49670.85,10691557.0,-0.2507476806640625
1717695440.7846951,-20117.48,-23665.17,-49670.85,10688436.0,-0.24994468688964844
1717695440.918664,-20125.43,-23649.29,-49670.85,10685121.0,-0.24912261962890625
1717695441.0526328,-20137.35,-23633.41,-49670.85,10682001.0,-0.24837493896484375
1717695441.1866016,-20153.25,-23613.559999999998,-49670.85,10678902.0,-0.24756622314453125
1717695441.3205707,-20177.1,-23593.71,-49674.8,10675514.0,-0.246734619140625
1717695441.4545395,-20204.93,-23577.83,-49674.8,10672554.0,-0.24599075317382812
1717695441.5885084,-20232.75,-23569.89,-49674.8,10669519.0,-0.24521636962890625
1717695441.7224772,-20256.6,-23561.95,-49674.8,10666113.0,-0.24434661865234375
1717695441.856446,-20280.45,-23554.010000000002,-49674.8,10662627.0,-0.2435474395751953
1717695441.9904149,-20304.3,-23546.07,-49674.8,10659652.0,-0.24277114868164062
1717695442.1243837,-20324.18,-23542.1,-49674.8,10656350.0,-0.24190521240234375
1717695442.2583528,-20340.08,-23542.1,-49674.8,10653449.0,-0.24118614196777344
1717695442.3923216,-20352.0,-23546.07,-49674.8,10650444.0,-0.24040603637695312
1717695442.5262904,-20359.95,-23557.98,-49670.85,10647557.0,-0.23959732055664062
1717695442.6602592,-20359.95,-23573.86,-49670.85,10644698.0,-0.23888778686523438
1717695442.794228,-20352.0,-23585.77,-49670.85,10642161.0,-0.23816871643066406
1717695442.928197,-20340.08,-23605.620000000003,-49670.85,10639347.0,-0.237396240234375
1717695443.0621657,-20324.18,-23629.440000000002,-49670.85,10636737.0,-0.2367267608642578
1717695443.1961346,-20304.3,-23657.23,-49670.85,10634444.0,-0.23607254028320312
1717695443.3301036,-20280.45,-23677.08,-49674.8,10631791.0,-0.23532867431640625
1717695443.4640725,-20256.6,-23685.02,-49678.759999999995,10628618.0,-0.23459243774414062
1717695443.5980413,-20228.78,-23696.93,-49682.72,10626110.0,-0.2339153289794922
1717695443.7320101,-20204.93,-23704.870000000003,-49686.67,10623394.0,-0.2331829071044922
1717695443.865979,-20181.08,-23708.84,-49686.67,10620800.0,-0.23250389099121094
1717695443.9999478,-20161.2,-23712.809999999998,-49690.619999999995,10618015.0,-0.23181724548339844
1717695444.1339166,-20145.3,-23708.84,-49690.619999999995,10615039.0,-0.23104476928710938
1717695444.2678857,-20133.379999999997,-23696.93,-49694.58,10611973.0,-0.23030662536621094
1717695444.4018545,-20129.4,-23685.02,-49698.53,10609111.0,-0.22960853576660156
1717695444.5358233,-20133.379999999997,-23669.14,-49698.53,10606132.0,-0.22883987426757812
1717695444.6697922,-20141.32,-23653.260000000002,-49694.58,10602761.0,-0.2280406951904297
1717695444.803761,-20153.25,-23633.41,-49694.58,10600045.0,-0.2273540496826172
1717695444.9377298,-20173.129999999997,-23613.559999999998,-49694.58,10596820.0,-0.22653770446777344
1717695445.0716987,-20196.98,-23593.71,-49694.58,10593512.0,-0.22574424743652344
1717695445.2056675,-20224.8,-23581.8,-49694.58,10590468.0,-0.22501754760742188
1717695445.3396366,-20252.629999999997,-23573.86,-49694.58,10587462.0,-0.2242259979248047
1717695445.4736054,-20276.48,-23565.92,-49690.619999999995,10584339.0,-0.22344970703125
1717695445.6075742,-20300.32,-23561.95,-49690.619999999995,10581379.0,-0.22271347045898438
1717695445.741543,-20324.18,-23554.010000000002,-49690.619999999995,10578620.0,-0.2219676971435547
1717695445.875512,-20344.05,-23550.04,-49690.619999999995,10575519.0,-0.2211894989013672
1717695446.0094807,-20359.95,-23554.010000000002,-49690.619999999995,10572593.0,-0.22045135498046875
1717695446.1434495,-20367.9,-23565.92,-49686.67,10570169.0,-0.2197704315185547
1717695446.2774186,-20371.879999999997,-23581.8,-49686.67,10567565.0,-0.21904754638671875
1717695446.4113874,-20367.9,-23593.71,-49686.67,10564820.0,-0.21834182739257812
1717695446.5453563,-20359.95,-23609.59,-49686.67,10562290.0,-0.21767616271972656
1717695446.679325,-20344.05,-23633.41,-49686.67,10559556.0,-0.2169475555419922
1717695446.813294,-20324.18,-23657.23,-49690.619999999995,10557361.0,-0.21632766723632812
1717695446.9472628,-20300.32,-23677.08,-49690.619999999995,10554916.0,-0.2156829833984375
1717695447.0812316,-20272.5,-23692.96,-49690.619999999995,10552223.0,-0.2149677276611328
1717695447.2152004,-20244.68,-23700.9,-49694.58,10549750.0,-0.21430397033691406
1717695447.3491695,-20220.82,-23704.870000000003,-49698.53,10547224.0,-0.21367835998535156
1717695447.4831383,-20196.98,-23712.809999999998,-49702.490000000005,10544489.0,-0.2129535675048828
1717695447.6171072,-20173.129999999997,-23716.78,-49706.44,10541708.0,-0.2122669219970703
1717695447.751076,-20153.25,-23716.78,-49710.4,10539418.0,-0.21165847778320312
1717695447.8850448,-20137.35,-23708.84,-49714.36,10536847.0,-0.21097373962402344
1717695448.0190136,-20125.43,-23696.93,-49718.31,10533885.0,-0.2102527618408203
1717695448.1529825,-20121.45,-23681.05,-49718.31,10531177.0,-0.20960617065429688
1717695448.2869515,-20125.43,-23665.17,-49718.31,10528255.0,-0.20886993408203125
1717695448.4209204,-20137.35,-23649.29,-49714.36,10525381.0,-0.20814132690429688
1717695448.5548892,-20153.25,-23633.41,-49714.36,10522491.0,-0.2074604034423828
1717695448.688858,-20173.129999999997,-23609.59,-49714.36,10519664.0,-0.20673179626464844
1717695448.8228269,-20196.98,-23593.71,-49714.36,10516604.0,-0.2059803009033203
1717695448.9567957,-20224.8,-23581.8,-49714.36,10513740.0,-0.20528411865234375
1717695449.0907645,-20252.629999999997,-23573.86,-49710.4,10510891.0,-0.20458030700683594
1717695449.2247336,-20280.45,-23565.92,-49706.44,10507898.0,-0.20379638671875
1717695449.3587024,-20304.3,-23561.95,-49706.44,10505161.0,-0.20313453674316406
1717695449.4926713,-20328.15,-23557.98,-49706.44,10502439.0,-0.20242881774902344
1717695449.62664,-20352.0,-23554.010000000002,-49706.44,10499655.0,-0.2016735076904297
1717695449.760609,-20367.9,-23557.98,-49702.490000000005,10497058.0,-0.2010326385498047
1717695449.8945777,-20379.82,-23573.86,-49702.490000000005,10494878.0,-0.2004108428955078
1717695450.0285466,-20383.8,-23581.8,-49702.490000000005,10492237.0,-0.19968605041503906
1717695450.1625154,-20383.8,-23593.71,-49702.490000000005,10489718.0,-0.19906044006347656
1717695450.2964845,-20375.85,-23609.59,-49702.490000000005,10487313.0,-0.1984233856201172
1717695450.4304533,-20363.93,-23629.440000000002,-49702.490000000005,10484946.0,-0.19774436950683594
1717695450.5644221,-20344.05,-23653.260000000002,-49702.490000000005,10482571.0,-0.1971454620361328
1717695450.698391,-20320.2,-23677.08,-49702.490000000005,10480493.0,-0.19656753540039062
1717695450.8323598,-20292.379999999997,-23696.93,-49706.44,10478413.0,-0.19594764709472656
1717695450.9663286,-20264.55,-23704.870000000003,-49710.4,10475954.0,-0.1953277587890625
1717695451.1002975,-20236.72,-23712.809999999998,-49714.36,10473554.0,-0.19472694396972656
1717695451.2342665,-20212.879999999997,-23720.75,-49718.31,10471467.0,-0.1941394805908203
1717695451.3682353,-20193.0,-23724.72,-49722.259999999995,10468980.0,-0.1934947967529297
1717695451.5022042,-20173.129999999997,-23724.72,-49722.259999999995,10466496.0,-0.19290924072265625
1717695451.636173,-20157.22,-23720.75,-49726.22,10464075.0,-0.19227218627929688
1717695451.7701418,-20145.3,-23708.84,-49730.17,10461464.0,-0.19160842895507812
1717695451.9041107,-20141.32,-23696.93,-49730.17,10459006.0,-0.19100189208984375
1717695452.0380795,-20145.3,-23685.02,-49730.17,10456505.0,-0.19038772583007812
1717695452.1720483,-20149.28,-23669.14,-49730.17,10453984.0,-0.18971824645996094
1717695452.3060174,-20161.2,-23653.260000000002,-49730.17,10451183.0,-0.18906211853027344
1717695452.4399862,-20177.1,-23637.379999999997,-49730.17,10448708.0,-0.1884479522705078
1717695452.573955,-20196.98,-23621.5,-49730.17,10445777.0,-0.18771743774414062
1717695452.707924,-20224.8,-23605.620000000003,-49726.22,10442941.0,-0.187042236328125
1717695452.8418927,-20252.629999999997,-23589.739999999998,-49722.259999999995,10440318.0,-0.18640708923339844
1717695452.9758615,-20280.45,-23581.8,-49722.259999999995,10437813.0,-0.1857433319091797
1717695453.1098304,-20308.28,-23573.86,-49722.259999999995,10434849.0,-0.1850128173828125
1717695453.2437994,-20336.1,-23569.89,-49722.259999999995,10432174.0,-0.18439102172851562
1717695453.3777683,-20359.95,-23565.92,-49722.259999999995,10429679.0,-0.18371009826660156
1717695453.511737,-20379.82,-23569.89,-49722.259999999995,10427056.0,-0.1830158233642578
1717695453.645706,-20395.72,-23573.86,-49718.31,10425010.0,-0.1824779510498047
1717695453.7796748,-20407.65,-23581.8,-49718.31,10422852.0,-0.18186569213867188
1717695453.9136436,-20407.65,-23597.68,-49718.31,10420291.0,-0.181182861328125
1717695454.0476124,-20403.68,-23613.559999999998,-49718.31,10417967.0,-0.18061447143554688
1717695454.1815813,-20391.75,-23629.440000000002,-49718.31,10415832.0,-0.1800251007080078
1717695454.3155503,-20375.85,-23649.29,-49718.31,10413771.0,-0.179412841796875
1717695454.4495192,-20352.0,-23665.17,-49718.31,10411742.0,-0.17889022827148438
1717695454.583488,-20328.15,-23685.02,-49718.31,10409676.0,-0.17833900451660156
1717695454.7174568,-20300.32,-23704.870000000003,-49722.259999999995,10407726.0,-0.17775344848632812
1717695454.8514256,-20272.5,-23716.78,-49726.22,10405495.0,-0.17720985412597656
1717695454.9853945,-20244.68,-23724.72,-49726.22,10403467.0,-0.17667198181152344
1717695455.1193633,-20220.82,-23732.66,-49730.17,10401524.0,-0.1761035919189453
1717695455.2533324,-20196.98,-23736.629999999997,-49734.130000000005,10399298.0,-0.1755542755126953
1717695455.3873012,-20173.129999999997,-23736.629999999997,-49738.08,10397073.0,-0.17501449584960938
1717695455.52127,-20157.22,-23732.66,-49742.04,10394795.0,-0.17441749572753906
1717695455.6552389,-20145.3,-23724.72,-49742.04,10392423.0,-0.173828125
1717695455.7892077,-20137.35,-23712.809999999998,-49742.04,10389958.0,-0.17325973510742188
1717695455.9231765,-20137.35,-23692.96,-49742.04,10387677.0,-0.1726512908935547
1717695456.0571454,-20145.3,-23677.08,-49746.0,10384925.0,-0.17200469970703125
1717695456.1911144,-20161.2,-23657.23,-49746.0,10382514.0,-0.1714324951171875
1717695456.3250833,-20177.1,-23641.35,-49746.0,10380101.0,-0.17081451416015625
1717695456.459052,-20200.95,-23625.47,-49746.0,10377688.0,-0.17018508911132812
1717695456.593021,-20228.78,-23609.59,-49742.04,10375042.0,-0.1695842742919922
1717695456.7269897,-20256.6,-23601.65,-49738.08,10372727.0,-0.16897964477539062
1717695456.8609586,-20288.4,-23589.739999999998,-49738.08,10370088.0,-0.16832351684570312
1717695456.9949274,-20316.22,-23585.77,-49734.130000000005,10367554.0,-0.16772079467773438
1717695457.1288962,-20344.05,-23581.8,-49734.130000000005,10365495.0,-0.167144775390625
1717695457.2628653,-20367.9,-23577.83,-49734.130000000005,10363009.0,-0.16651153564453125
1717695457.3968341,-20387.78,-23577.83,-49730.17,10360508.0,-0.16588401794433594
1717695457.530803,-20403.68,-23585.77,-49730.17,10358595.0,-0.16536521911621094
1717695457.6647718,-20411.629999999997,-23597.68,-49730.17,10356642.0,-0.164794921875
1717695457.7987406,-20411.629999999997,-23613.559999999998,-49730.17,10354110.0,-0.1641712188720703
1717695457.9327095,-20407.65,-23629.440000000002,-49730.17,10352560.0,-0.16371726989746094
1717695458.0666783,-20395.72,-23645.32,-49730.17,10350789.0,-0.1631755828857422
1717695458.2006474,-20379.82,-23669.14,-49730.17,10348590.0,-0.16261672973632812
1717695458.3346162,-20359.95,-23685.02,-49730.17,10347056.0,-0.16218948364257812
1717695458.468585,-20336.1,-23704.870000000003,-49734.130000000005,10345031.0,-0.16163253784179688
1717695458.6025538,-20304.3,-23720.75,-49738.08,10342820.0,-0.16106224060058594
1717695458.7365227,-20272.5,-23736.629999999997,-49742.04,10341510.0,-0.1606884002685547
1717695458.8704915,-20244.68,-23736.629999999997,-49746.0,10339416.0,-0.1601123809814453
1717695459.0044603,-20220.82,-23740.6,-49746.0,10337255.0,-0.15958786010742188
1717695459.1384292,-20196.98,-23744.57,-49749.95,10335328.0,-0.15911483764648438
1717695459.2723982,-20177.1,-23748.54,-49753.9,10333327.0,-0.15858078002929688
1717695459.406367,-20157.22,-23744.57,-49757.86,10331097.0,-0.15802574157714844
1717695459.540336,-20145.3,-23736.629999999997,-49757.86,10329141.0,-0.15755653381347656
1717695459.6743047,-20141.32,-23720.75,-49757.86,10327123.0,-0.15701675415039062
1717695459.8082736,-20141.32,-23700.9,-49757.86,10324874.0,-0.1564483642578125
1717695459.9422424,-20149.28,-23685.02,-49757.86,10322512.0,-0.15592575073242188
1717695460.0762112,-20165.18,-23665.17,-49757.86,10320279.0,-0.15535354614257812
1717695460.2101803,-20185.05,-23645.32,-49757.86,10317836.0,-0.15474510192871094
1717695460.344149,-20208.9,-23629.440000000002,-49757.86,10315554.0,-0.15422821044921875
1717695460.478118,-20240.7,-23617.53,-49753.9,10313463.0,-0.15366744995117188
1717695460.6120868,-20272.5,-23601.65,-49749.95,10310996.0,-0.15304946899414062
1717695460.7460556,-20304.3,-23597.68,-49749.95,10308729.0,-0.15253257751464844
1717695460.8800244,-20332.129999999997,-23589.739999999998,-49749.95,10306532.0,-0.15195655822753906
1717695461.0139933,-20355.98,-23589.739999999998,-49746.0,10304264.0,-0.15134811401367188
1717695461.147962,-20379.82,-23585.77,-49742.04,10302317.0,-0.1508769989013672
1717695461.2819312,-20399.7,-23589.739999999998,-49742.04,10300246.0,-0.15032386779785156
1717695461.4159,-20411.629999999997,-23593.71,-49738.08,10298232.0,-0.14975357055664062
1717695461.5498688,-20419.58,-23609.59,-49738.08,10296553.0,-0.14931678771972656
1717695461.6838377,-20419.58,-23629.440000000002,-49738.08,10294702.0,-0.1488056182861328
1717695461.8178065,-20411.629999999997,-23645.32,0.0,10292843.0,-0.14826393127441406
