,x,y,z,temp,temp_error
1717700660.5226357,-16739.48,11793.239999999998,590.6800000000003,8413430.0,-0.0061702728271484375
1717700660.6594033,-17178.260000000002,12125.339999999997,475.5199999999968,8422555.0,-0.008501052856445312
1717700660.7961707,-17585.95,12438.989999999998,349.2099999999991,8431958.0,-0.010915756225585938
1717700660.9329383,-17966.0,12741.57,215.47000000000116,8441788.0,-0.013446807861328125
1717700661.0697057,-18318.41,13029.39,74.30000000000291,8451717.0,-0.01599884033203125
1717700661.2064734,-18646.64,13306.14,-78.0099999999984,8461923.0,-0.018632888793945312
1717700661.3432407,-18954.129999999997,13568.129999999997,-237.7599999999984,8472173.0,-0.02127838134765625
1717700661.4800084,-19240.9,13819.050000000003,-404.9300000000003,8482478.0,-0.023916244506835938
1717700661.6167758,-19506.93,14058.900000000001,-579.5400000000009,8492814.0,-0.026580810546875
1717700661.7535434,-19755.690000000002,14287.68,-761.5699999999997,8503176.0,-0.029209136962890625
1717700661.8903108,-19987.18,14509.080000000002,-951.0400000000009,8513482.0,-0.031818389892578125
1717700662.0270784,-20204.84,14719.410000000003,-1147.9300000000003,8523698.0,-0.03439903259277344
1717700662.163846,-20408.690000000002,14918.669999999998,-1348.5400000000009,8533717.0,-0.036922454833984375
1717700662.3006134,-20598.71,15110.550000000003,-1556.5900000000001,8543529.0,-0.039386749267578125
1717700662.437381,-20774.92,15295.050000000003,-1768.3400000000001,8553121.0,-0.0417938232421875
1717700662.5741484,-20940.760000000002,15468.480000000003,-1987.5200000000004,8562516.0,-0.044178009033203125
1717700662.710916,-21096.23,15634.529999999999,-2210.4199999999983,8571616.0,-0.046443939208984375
1717700662.8476834,-21241.34,15789.510000000002,-2437.040000000001,8580178.0,-0.04857444763183594
1717700662.984451,-21379.54,15937.11,-2671.09,8588400.0,-0.05063629150390625
1717700663.1212184,-21507.379999999997,16073.64,-2908.84,8596165.0,-0.05258941650390625
1717700663.257986,-21628.3,16202.79,-3150.3199999999997,8603342.0,-0.054401397705078125
1717700663.3947535,-21742.32,16320.870000000003,-3399.220000000001,8610072.0,-0.05611228942871094
1717700663.531521,-21852.879999999997,16431.57,-3651.84,8616101.0,-0.0576629638671875
1717700663.6682885,-21956.53,16531.199999999997,-3908.1800000000003,8621507.0,-0.05900764465332031
1717700663.805056,-22053.27,16623.449999999997,-4168.23,8626287.0,-0.06026268005371094
1717700663.9418237,-22146.55,16704.629999999997,-4432.0,8630249.0,-0.06131935119628906
1717700664.078591,-22232.93,16774.739999999998,-4699.470000000001,8633720.0,-0.06223297119140625
1717700664.2153587,-22315.85,16837.47,-4970.669999999998,8636533.0,-0.06295585632324219
1717700664.3521261,-22395.309999999998,16889.129999999997,-5249.290000000001,8638670.0,-0.06351470947265625
1717700664.4888937,-22471.32,16933.410000000003,-5531.630000000001,8640267.0,-0.06392288208007812
1717700664.6256611,-22543.879999999997,16966.620000000003,-5817.689999999999,8641251.0,-0.06416511535644531
1717700664.7624288,-22612.98,16992.449999999997,-6107.459999999999,8641531.0,-0.06422615051269531
1717700664.8991961,-22682.08,17007.21,-6400.939999999999,8641387.0,-0.0641632080078125
1717700665.0359638,-22747.72,17014.589999999997,-6698.139999999999,8640752.0,-0.06393814086914062
1717700665.1727312,-22809.91,17014.589999999997,-6999.060000000001,8639796.0,-0.06364631652832031
1717700665.3094988,-22872.1,17007.21,-7303.689999999999,8638439.0,-0.06324958801269531
1717700665.4462664,-22934.29,16992.449999999997,-7612.029999999999,8636687.0,-0.06274986267089844
1717700665.5830338,-22993.03,16970.309999999998,-7927.810000000001,8634758.0,-0.06220245361328125
1717700665.7198014,-23048.3,16940.79,-8247.3,8632606.0,-0.0615997314453125
1717700665.8565688,-23103.59,16907.58,-8570.5,8630212.0,-0.06092071533203125
1717700665.9933364,-23158.870000000003,16870.68,-8897.419999999998,8627498.0,-0.06020164489746094
1717700666.1301038,-23214.14,16826.4,-9228.060000000001,8624788.0,-0.05948066711425781
1717700666.2668715,-23269.43,16778.43,-9566.119999999999,8621987.0,-0.05873870849609375
1717700666.4036388,-23321.25,16726.769999999997,-9907.91,8619160.0,-0.05800437927246094
1717700666.5404065,-23373.08,16671.42,-10253.400000000001,8616201.0,-0.0572509765625
1717700666.6771739,-23421.45,16616.07,-10606.32,8613272.0,-0.056514739990234375
1717700666.8139415,-23469.82,16557.03,-10962.96,8610394.0,-0.05579185485839844
1717700666.9507089,-23518.190000000002,16497.989999999998,-11323.32,8607626.0,-0.05509376525878906
1717700667.0874765,-23566.559999999998,16435.260000000002,-11687.39,8604952.0,-0.054401397705078125
1717700667.224244,-23614.93,16372.529999999999,-12058.89,8602581.0,-0.053783416748046875
1717700667.3610115,-23663.3,16306.11,-12434.099999999999,8600192.0,-0.053157806396484375
1717700667.4977791,-23711.67,16243.379999999997,-12816.75,8598182.0,-0.05260276794433594
1717700667.6345465,-23756.58,16176.96,-13203.11,8596436.0,-0.05210685729980469
1717700667.7713141,-23804.95,16110.54,-13596.900000000001,8595128.0,-0.05171012878417969
1717700667.9080815,-23853.32,16044.120000000003,-13994.41,8594072.0,-0.051372528076171875
1717700668.0448492,-23901.690000000002,15977.699999999997,-14399.34,8593348.0,-0.05111503601074219
1717700668.1816165,-23950.059999999998,15911.279999999999,-14807.990000000002,8593009.0,-0.05096244812011719
1717700668.3183842,-23998.43,15844.86,-15224.07,8592955.0,-0.05089569091796875
1717700668.4551516,-24046.8,15778.440000000002,-15643.869999999999,8593379.0,-0.05091285705566406
1717700668.5919192,-24095.17,15715.71,-16071.09,8594157.0,-0.05102729797363281
1717700668.7286868,-24140.09,15652.980000000003,-16505.75,8595170.0,-0.05122184753417969
1717700668.8654542,-24185.0,15590.25,-16944.120000000003,8596568.0,-0.05152130126953125
1717700669.0022218,-24229.92,15527.519999999997,-17389.92,8598361.0,-0.051937103271484375
1717700669.1389892,-24274.83,15464.79,-17843.14,8600255.0,-0.05239295959472656
1717700669.2757568,-24319.75,15402.059999999998,-18303.8,8602339.0,-0.05290031433105469
1717700669.4125242,-24364.66,15339.330000000002,-18768.18,8604648.0,-0.05343818664550781
1717700669.5492918,-24406.120000000003,15280.29,-19239.98,8607176.0,-0.05408668518066406
1717700669.6860592,-24451.04,15221.25,-19719.22,8609761.0,-0.05474662780761719
1717700669.8228269,-24492.5,15158.519999999997,-20205.879999999997,8612597.0,-0.055438995361328125
1717700669.9595942,-24537.41,15099.480000000003,-20699.98,8615647.0,-0.056163787841796875
1717700670.0963619,-24578.87,15036.75,-21201.510000000002,8618853.0,-0.05693244934082031
1717700670.2331293,-24620.33,14977.71,-21710.46,8622360.0,-0.05770301818847656
1717700670.369897,-24661.79,14914.980000000003,-22226.85,8625963.0,-0.05853080749511719
1717700670.5066645,-24706.71,14852.25,-22750.66,8629860.0,-0.05946540832519531
1717700670.643432,-24748.17,14785.830000000002,-23281.9,8633797.0,-0.060333251953125
1717700670.7801995,-24793.08,14719.410000000003,-23824.3,8638000.0,-0.061252593994140625
1717700670.916967,-24838.0,14652.989999999998,-24374.120000000003,8642251.0,-0.062213897705078125
1717700671.0537345,-24882.91,14586.57,-24935.08,8646674.0,-0.06321334838867188
1717700671.190502,-24927.82,14516.46,-25503.48,8651307.0,-0.06426239013671875
1717700671.3272696,-24972.739999999998,14442.660000000003,-26083.02,8656009.0,-0.06533241271972656
1717700671.464037,-25021.11,14368.86,-26669.98,8660843.0,-0.06643867492675781
1717700671.6008046,-25066.03,14291.370000000003,-27268.1,8665760.0,-0.06755256652832031
1717700671.737572,-25114.4,14213.879999999997,-27877.36,8670528.0,-0.06865501403808594
1717700671.8743396,-25162.77,14132.699999999997,-28497.77,8675318.0,-0.06980133056640625
1717700672.0111072,-25214.59,14047.830000000002,-29129.32,8680268.0,-0.07096672058105469
1717700672.1478746,-25266.42,13959.269999999997,-29772.010000000002,8685234.0,-0.07215309143066406
1717700672.2846422,-25318.239999999998,13870.71,-30425.85,8690099.0,-0.07332420349121094
1717700672.4214096,-25373.52,13774.769999999997,-31090.84,8694866.0,-0.07444381713867188
1717700672.5581772,-25432.260000000002,13675.14,-31770.68,8699579.0,-0.07552719116210938
1717700672.6949446,-25490.989999999998,13575.510000000002,-32461.67,8704503.0,-0.07664680480957031
1717700672.8317122,-25553.18,13472.190000000002,-33167.52,8709563.0,-0.07780075073242188
1717700672.9684796,-25615.37,13365.18,-33884.52,8714728.0,-0.0789337158203125
1717700673.1052473,-25681.02,13254.480000000003,-34616.37,8719950.0,-0.08001899719238281
1717700673.2420146,-25750.12,13140.089999999997,-35363.09,8725692.0,-0.08126258850097656
1717700673.3787823,-25822.67,13018.32,-36124.66,8731764.0,-0.08257484436035156
1717700673.51555,-25898.68,12892.86,-36901.1,8738210.0,-0.08397102355957031
1717700673.6523173,-25978.14,12767.400000000001,-37692.39,8745115.0,-0.08547019958496094
1717700673.789085,-26061.06,12638.25,-38498.55,8752456.0,-0.08707427978515625
1717700673.9258523,-26147.44,12505.410000000003,-39323.28,8760221.0,-0.08879852294921875
1717700674.06262,-26237.27,12368.879999999997,-40162.87,8768956.0,-0.09074211120605469
1717700674.1993873,-26334.010000000002,12228.660000000003,-41017.32,8778225.0,-0.09282493591308594
1717700674.336155,-26434.21,12084.75,-41886.62,8788045.0,-0.09505271911621094
1717700674.4729223,-26534.4,11937.150000000001,-42770.8,8798577.0,-0.09746932983398438
1717700674.60969,-26641.510000000002,11785.86,-43669.82,8809792.0,-0.10005760192871094
1717700674.7464573,-26752.06,11634.57,-44580.0,8821489.0,-0.10274505615234375
1717700674.883225,-26862.63,11479.589999999997,-45505.04,8834213.0,-0.10570335388183594
1717700675.0199924,-26980.1,11320.919999999998,-46437.5,8847329.0,-0.108734130859375
1717700675.15676,-27097.56,11158.559999999998,-47381.11,8861538.0,-0.11201095581054688
1717700675.2935276,-27221.95,10996.199999999997,-48332.15,8876332.0,-0.11544609069824219
1717700675.430295,-27346.33,10826.46,-49286.91,8892607.0,-0.11915779113769531
1717700675.5670626,-27477.62,10653.029999999999,-50237.95,8909437.0,-0.12298583984375
1717700675.70383,-27608.91,10475.910000000003,-51185.270000000004,8927309.0,-0.12702560424804688
1717700675.8405976,-27747.11,10295.099999999999,-52125.17,8945519.0,-0.13110923767089844
1717700675.977365,-27885.3,10106.910000000003,-53053.92,8964180.0,-0.13526153564453125
1717700676.1141326,-28026.96,9915.029999999999,-53964.09,8983221.0,-0.13947296142578125
1717700676.2509,-28172.07,9715.769999999997,-54851.979999999996,9001809.0,-0.1435527801513672
1717700676.3876677,-28324.09,9512.82,-55710.15,9019847.0,-0.14742279052734375
1717700676.524435,-28476.11,9306.18,-56531.16,9036658.0,-0.1509227752685547
1717700676.6612027,-28628.13,9092.160000000003,-57315.020000000004,9051990.0,-0.1540393829345703
1717700676.7979703,-28780.15,8878.14,-58054.31,9065277.0,-0.15660858154296875
1717700676.9347377,-28939.08,8664.120000000003,-58745.3,9075942.0,-0.1584796905517578
1717700677.0715053,-29094.56,8450.099999999999,-59388.0,9084202.0,-0.15970993041992188
1717700677.2082727,-29250.03,8239.769999999997,-59978.68,9089972.0,-0.16028213500976562
1717700677.3450403,-29405.510000000002,8033.129999999997,-60517.36,9092756.0,-0.16004562377929688
1717700677.4818077,-29557.53,7833.870000000003,-61004.020000000004,9093007.0,-0.15919113159179688
1717700677.6185753,-29709.55,7645.68,-61438.68,9090921.0,-0.1577167510986328
1717700677.7553427,-29854.66,7464.870000000003,-61828.75,9086268.0,-0.15555572509765625
1717700677.8921103,-29996.31,7295.129999999997,-62174.240000000005,9079597.0,-0.1528606414794922
1717700678.0288777,-30131.06,7140.1500000000015,-62475.16,9071279.0,-0.14972305297851562
1717700678.1656454,-30262.35,6999.93,-62742.64,9061339.0,-0.1461620330810547
1717700678.3024127,-30386.72,6870.779999999999,-62972.97,9050120.0,-0.14226913452148438
1717700678.4391804,-30500.739999999998,6756.389999999999,-63173.58,9037948.0,-0.13813209533691406
1717700678.575948,-30611.3,6649.379999999997,-63348.18,9024916.0,-0.13377952575683594
1717700678.7127154,-30714.95,6553.440000000002,-63500.5,9011237.0,-0.1292705535888672
1717700678.849483,-30811.69,6468.57,-63630.520000000004,8996943.0,-0.12462997436523438
1717700678.9862504,-30898.07,6394.769999999997,-63741.97,8982557.0,-0.11996269226074219
1717700679.123018,-30977.53,6332.040000000001,-63838.56,8968066.0,-0.11528968811035156
1717700679.2597854,-31053.54,6276.690000000002,-63920.29,8953389.0,-0.11058235168457031
1717700679.396553,-31119.19,6228.720000000001,-63994.59,8938764.0,-0.1059112548828125
1717700679.5333204,-31181.38,6184.440000000002,-64054.04,8924243.0,-0.10127449035644531
1717700679.670088,-31236.66,6151.230000000003,-64109.759999999995,8909590.0,-0.09664726257324219
1717700679.8068554,-31288.48,6121.709999999999,-64154.34,8895345.0,-0.09212112426757812
1717700679.943623,-31329.94,6095.879999999997,-64195.2,8881206.0,-0.0876617431640625
1717700680.0803907,-31367.95,6073.739999999998,-64232.36,8867194.0,-0.08327674865722656
1717700680.217158,-31402.5,6055.290000000001,-64265.79,8853406.0,-0.07898712158203125
1717700680.3539257,-31430.14,6040.529999999999,-64295.509999999995,8839831.0,-0.07478713989257812
1717700680.490693,-31457.78,6025.769999999997,-64321.520000000004,8826401.0,-0.07066726684570312
1717700680.6274607,-31478.51,6018.389999999999,-64343.81,8813183.0,-0.06662178039550781
1717700680.764228,-31495.78,6014.699999999997,-64366.09,8800149.0,-0.06264495849609375
1717700680.9009957,-31513.06,6011.010000000002,-64388.380000000005,8787577.0,-0.05884361267089844
1717700681.037763,-31526.88,6003.629999999997,-64406.96,8775338.0,-0.05515861511230469
1717700681.1745307,-31537.24,5999.940000000002,-64421.82,8763211.0,-0.05152320861816406
1717700681.3112981,-31547.61,5996.25,-64436.68,8751706.0,-0.048084259033203125
1717700681.4480658,-31554.52,5996.25,-64451.54,8740360.0,-0.04471397399902344
1717700681.5848334,-31561.43,5996.25,-64466.4,8729543.0,-0.04151153564453125
1717700681.7216008,-31564.88,5996.25,-64481.259999999995,8719156.0,-0.0384521484375
1717700681.8583684,-31568.34,5999.940000000002,-64492.4,8709233.0,-0.0355377197265625
1717700681.9951358,-31568.34,5999.940000000002,-64503.55,8699978.0,-0.032817840576171875
1717700682.1319034,-31571.79,5999.940000000002,-64514.69,8691173.0,-0.030221939086914062
1717700682.2686708,-31568.34,5999.940000000002,-64525.84,8683074.0,-0.027828216552734375
1717700682.4054384,-31568.34,6003.629999999997,-64536.990000000005,8675799.0,-0.025659561157226562
1717700682.5422058,-31564.88,6003.629999999997,-64548.130000000005,8669639.0,-0.023792266845703125
1717700682.6789734,-31557.97,6011.010000000002,-64559.270000000004,8664135.0,-0.02211761474609375
1717700682.8157408,-31551.06,6011.010000000002,-64570.42,8659751.0,-0.020738601684570312
1717700682.9525084,-31544.15,6014.699999999997,-64581.56,8656109.0,-0.019559860229492188
1717700683.0892758,-31537.24,6014.699999999997,-64592.71,8653110.0,-0.018579483032226562
1717700683.2260435,-31526.88,6014.699999999997,-64600.14,8651104.0,-0.017847061157226562
1717700683.362811,-31519.96,6022.080000000002,-64607.57,8649969.0,-0.01735687255859375
1717700683.4995785,-31509.6,6025.769999999997,-64618.72,8649864.0,-0.0171356201171875
1717700683.636346,-31499.24,6029.459999999999,-64626.15,8650511.0,-0.017110824584960938
1717700683.7731135,-31488.87,6033.1500000000015,-64633.57,8651549.0,-0.017181396484375
1717700683.909881,-31475.05,6036.8399999999965,-64644.72,8653507.0,-0.017484664916992188
1717700684.0466485,-31468.14,6036.8399999999965,-64652.15,8655998.0,-0.017925262451171875
1717700684.1834161,-31457.78,6040.529999999999,-64659.58,8659109.0,-0.018499374389648438
1717700684.3201835,-31447.41,6044.220000000001,-64667.009999999995,8662489.0,-0.019159317016601562
1717700684.4569511,-31437.04,6047.9100000000035,-64678.16,8666456.0,-0.019948959350585938
1717700684.5937185,-31430.14,6055.290000000001,-64685.58,8670594.0,-0.020771026611328125
1717700684.7304862,-31419.77,6058.980000000003,-64693.009999999995,8674988.0,-0.0216522216796875
1717700684.8672538,-31409.41,6066.360000000001,-64700.44,8679352.0,-0.0225067138671875
1717700685.0040212,-31399.04,6070.050000000003,-64707.880000000005,8683936.0,-0.02339935302734375
1717700685.1407888,-31392.13,6073.739999999998,-64715.31,8688426.0,-0.0242462158203125
1717700685.2775562,-31381.77,6081.120000000003,-64722.729999999996,8692836.0,-0.025079727172851562
1717700685.4143238,-31374.86,6084.809999999998,-64730.16,8697325.0,-0.025903701782226562
1717700685.5510912,-31364.49,6092.190000000002,-64741.31,8701652.0,-0.026639938354492188
1717700685.6878588,-31357.58,6095.879999999997,-64748.740000000005,8705697.0,-0.027324676513671875
1717700685.8246262,-31350.67,6103.260000000002,-64756.17,8709293.0,-0.027883529663085938
1717700685.9613938,-31343.76,6106.949999999997,-64763.6,8712625.0,-0.028385162353515625
1717700686.0981612,-31340.3,6114.330000000002,-64771.03,8715381.0,-0.028743743896484375
1717700686.2349288,-31336.85,6118.019999999997,-64778.46,8717839.0,-0.029008865356445312
1717700686.3716962,-31329.94,6125.4000000000015,-64785.89,8719871.0,-0.029172897338867188
1717700686.5084639,-31326.49,6129.0899999999965,-64793.32,8721529.0,-0.029233932495117188
1717700686.6452315,-31323.03,6132.779999999999,-64800.75,8722611.0,-0.029161453247070312
1717700686.7819989,-31323.03,6140.1600000000035,-64804.47,8723138.0,-0.028951644897460938
1717700686.9187665,-31323.03,6143.8499999999985,-64808.18,8723408.0,-0.02866363525390625
1717700687.055534,-31319.58,6147.540000000001,-64811.89,8723065.0,-0.028228759765625
1717700687.1923015,-31323.03,6147.540000000001,-64815.61,8722372.0,-0.0277099609375
1717700687.329069,-31323.03,6151.230000000003,-64823.04,8721266.0,-0.02709197998046875
1717700687.4658365,-31323.03,6151.230000000003,-64826.75,8719984.0,-0.026441574096679688
1717700687.602604,-31323.03,6151.230000000003,-64830.47,8718302.0,-0.025691986083984375
1717700687.7393715,-31323.03,6151.230000000003,-64830.47,8716198.0,-0.024845123291015625
1717700687.876139,-31323.03,6151.230000000003,-64834.18,8713741.0,-0.023916244506835938
1717700688.0129066,-31326.49,6154.919999999998,-64834.18,8711363.0,-0.022998809814453125
1717700688.1496742,-31326.49,6158.610000000001,-64834.18,8708534.0,-0.02197265625
1717700688.2864416,-31329.94,6162.300000000003,-64834.18,8705600.0,-0.0209197998046875
1717700688.4232092,-31329.94,6158.610000000001,-64834.18,8702695.0,-0.019893646240234375
1717700688.5599766,-31333.4,6158.610000000001,-64830.47,8699588.0,-0.018817901611328125
1717700688.6967442,-31336.85,6158.610000000001,-64830.47,8696348.0,-0.017732620239257812
1717700688.8335116,-31340.3,6154.919999999998,-64830.47,8692984.0,-0.016651153564453125
1717700688.9702792,-31347.22,6154.919999999998,-64826.75,8689612.0,-0.015573501586914062
1717700689.1070466,-31350.67,6154.919999999998,-64823.04,8686396.0,-0.01456451416015625
1717700689.2438142,-31357.58,6151.230000000003,-64819.33,8682987.0,-0.013515472412109375
1717700689.3805816,-31367.95,6147.540000000001,-64815.61,8679685.0,-0.012506484985351562
1717700689.5173492,-31374.86,6143.8499999999985,-64811.89,8676542.0,-0.0115509033203125
1717700689.6541166,-31381.77,6136.470000000001,-64804.47,8673589.0,-0.010652542114257812
1717700689.7908843,-31388.68,6132.779999999999,-64793.32,8670648.0,-0.009769439697265625
1717700689.927652,-31395.59,6129.0899999999965,-64785.89,8668007.0,-0.008974075317382812
1717700690.0644193,-31402.5,6121.709999999999,-64778.46,8665606.0,-0.0082550048828125
1717700690.201187,-31412.86,6114.330000000002,-64771.03,8663451.0,-0.0076122283935546875
1717700690.3379543,-31423.22,6106.949999999997,-64763.6,8661677.0,-0.007053375244140625
1717700690.474722,-31433.59,6103.260000000002,-64752.45,8659701.0,-0.0064849853515625
1717700690.6114893,-31440.5,6095.879999999997,-64745.020000000004,8658445.0,-0.006072998046875
1717700690.748257,-31450.87,6092.190000000002,-64737.59,8657463.0,-0.005741119384765625
