,x,y,z,temp,temp_error
1714594064.1333067,8351.480000000003,-17706.2,31303.83,10826323.0,-0.25237464904785156
1714594064.2743943,9082.870000000003,-17813.39,32862.100000000006,10853719.0,-0.2596263885498047
1714594064.4154816,9822.230000000003,-17845.15,34368.96000000001,10877043.0,-0.2659950256347656
1714594064.556569,10569.519999999997,-17809.42,35816.490000000005,10900501.0,-0.27221107482910156
1714594064.6976566,11316.82,-17706.2,37204.69,10923901.0,-0.2786998748779297
1714594064.838744,12060.150000000001,-17547.4,38529.61,10945170.0,-0.2849292755126953
1714594064.9798315,12799.5,-17340.96,39783.350000000006,10963575.0,-0.29048728942871094
1714594065.120919,13526.919999999998,-17090.85,40969.850000000006,10980227.0,-0.2954902648925781
1714594065.2620063,14242.419999999998,-16805.010000000002,42085.16,10996936.0,-0.30078697204589844
1714594065.4030938,14938.050000000003,-16491.379999999997,43129.28,11011250.0,-0.30562591552734375
1714594065.5441813,15613.800000000003,-16157.900000000001,44098.25,11021809.0,-0.3095855712890625
1714594065.6852686,16265.699999999997,-15808.54,45000.0,11032538.0,-0.31346702575683594
1714594065.8263562,16893.75,-15451.240000000002,45830.55,11042320.0,-0.31722259521484375
1714594065.9674437,17493.980000000003,-15093.939999999999,46593.86,11049821.0,-0.3206062316894531
1714594066.108531,18062.4,-14736.64,47289.94,11054157.0,-0.3232002258300781
1714594066.2496185,18599.019999999997,-14387.279999999999,47922.740000000005,11058875.0,-0.3256492614746094
1714594066.390706,19103.85,-14049.830000000002,48496.21000000001,11062976.0,-0.32807350158691406
1714594066.5317934,19576.870000000003,-13728.259999999998,49014.32000000001,11065074.0,-0.3300304412841797
1714594066.672881,20014.120000000003,-13422.57,49477.05,11064811.0,-0.3313884735107422
1714594066.8139684,20419.58,-13136.73,49892.33,11065704.0,-0.3327198028564453
1714594066.9550557,20793.230000000003,-12866.77,50260.14,11065517.0,-0.33394622802734375
1714594067.0961432,21139.050000000003,-12616.66,50584.46000000001,11064724.0,-0.3348884582519531
1714594067.2372308,21457.050000000003,-12382.43,50873.17,11062371.0,-0.3353919982910156
1714594067.378318,21747.230000000003,-12164.080000000002,51126.28,11061083.0,-0.33594322204589844
1714594067.5194056,22009.58,-11961.61,51347.770000000004,11059928.0,-0.3365058898925781
1714594067.6604931,22248.08,-11778.990000000002,51541.57000000001,11057639.0,-0.3367729187011719
1714594067.8015804,22466.699999999997,-11608.279999999999,51711.630000000005,11055091.0,-0.3368377685546875
1714594067.942668,22665.449999999997,-11449.48,51857.96000000001,11053632.0,-0.33698081970214844
1714594068.0837555,22844.32,-11302.59,51984.53,11051998.0,-0.3371429443359375
1714594068.2248428,23007.300000000003,-11163.64,52095.270000000004,11049556.0,-0.337066650390625
1714594068.3659303,23150.4,-11040.57,52194.14,11047377.0,-0.33690452575683594
1714594068.5070179,23277.6,-10925.439999999999,52281.14,11045968.0,-0.3368358612060547
1714594068.6481051,23392.870000000003,-10818.25,52360.25,11044370.0,-0.3367881774902344
1714594068.7891927,23492.25,-10722.970000000001,52427.490000000005,11042337.0,-0.33657073974609375
1714594068.9302802,23583.68,-10639.599999999999,52486.81,11040003.0,-0.33623313903808594
1714594069.0713675,23663.18,-10564.169999999998,52542.17999999999,11038553.0,-0.3360252380371094
1714594069.212455,23730.75,-10500.650000000001,52589.64,11036810.0,-0.3358192443847656
1714594069.3535426,23790.370000000003,-10445.07,52633.14,11034631.0,-0.3354644775390625
1714594069.4946299,23842.050000000003,-10401.400000000001,52668.740000000005,11032249.0,-0.33502960205078125
1714594069.6357174,23889.75,-10365.669999999998,52700.380000000005,11030706.0,-0.3347206115722656
1714594069.776805,23929.5,-10333.91,52728.07000000001,11029109.0,-0.3344554901123047
1714594069.9178922,23965.28,-10310.09,52747.850000000006,11027043.0,-0.33405303955078125
1714594070.0589797,23997.08,-10290.240000000002,52763.66,11024608.0,-0.3335533142089844
1714594070.2000673,24028.870000000003,-10274.36,52775.53,11023058.0,-0.33319664001464844
1714594070.3411546,24056.699999999997,-10258.48,52787.39,11021258.0,-0.3328533172607422
1714594070.482242,24080.550000000003,-10246.57,52795.3,11019194.0,-0.33240509033203125
1714594070.6233296,24104.4,-10234.66,52799.25,11017133.0,-0.3319206237792969
1714594070.764417,24128.25,-10222.75,52799.25,11016101.0,-0.3316020965576172
1714594070.9055045,24148.120000000003,-10210.84,52799.25,11014445.0,-0.3312492370605469
1714594071.046592,24168.0,-10198.93,52799.25,11012364.0,-0.330780029296875
1714594071.1876793,24187.870000000003,-10183.05,52799.25,11010088.0,-0.33023834228515625
1714594071.3287668,24203.78,-10167.169999999998,52799.25,11008801.0,-0.32990455627441406
1714594071.4698544,24219.68,-10151.29,52799.25,11007119.0,-0.3295135498046875
1714594071.610942,24231.6,-10135.41,52799.25,11005159.0,-0.32904624938964844
1714594071.7520292,24243.519999999997,-10119.529999999999,52803.21000000001,11003030.0,-0.32851219177246094
1714594071.8931167,24251.480000000003,-10107.619999999999,52807.17,11001213.0,-0.328094482421875
1714594072.0342042,24259.42,-10095.71,52811.119999999995,10999532.0,-0.32769012451171875
1714594072.1752915,24263.4,-10087.77,52815.08,10997375.0,-0.3271827697753906
1714594072.316379,24267.370000000003,-10083.8,52822.990000000005,10995047.0,-0.3266010284423828
1714594072.4574666,24271.35,-10079.830000000002,52830.89,10993084.0,-0.32616615295410156
1714594072.598554,24271.35,-10083.8,52834.850000000006,10990770.0,-0.325653076171875
1714594072.7396414,24271.35,-10087.77,52838.8,10988616.0,-0.32512855529785156
1714594072.880729,24271.35,-10095.71,52842.759999999995,10986121.0,-0.3245048522949219
1714594073.0218163,24271.35,-10103.650000000001,52846.72,10984427.0,-0.3240966796875
1714594073.1629038,24271.35,-10111.59,52846.72,10981968.0,-0.32353782653808594
1714594073.3039913,24275.32,-10119.529999999999,52846.72,10979659.0,-0.3229827880859375
1714594073.4450786,24279.300000000003,-10127.470000000001,52842.759999999995,10977633.0,-0.32241058349609375
1714594073.5861661,24283.28,-10135.41,52838.8,10975636.0,-0.3219451904296875
1714594073.7272537,24287.25,-10143.349999999999,52830.89,10973588.0,-0.321441650390625
1714594073.868341,24295.199999999997,-10147.32,52822.990000000005,10970935.0,-0.320831298828125
1714594074.0094285,24303.15,-10147.32,52819.03,10968878.0,-0.32024574279785156
1714594074.150516,24311.1,-10147.32,52815.08,10967051.0,-0.31981468200683594
1714594074.2916033,24319.050000000003,-10143.349999999999,52811.119999999995,10965142.0,-0.319305419921875
1714594074.4326909,24327.0,-10139.380000000001,52807.17,10962571.0,-0.3187084197998047
1714594074.5737784,24334.949999999997,-10131.439999999999,52803.21000000001,10960205.0,-0.3180809020996094
1714594074.7148657,24342.9,-10119.529999999999,52803.21000000001,10958655.0,-0.3176727294921875
1714594074.8559532,24346.870000000003,-10111.59,52803.21000000001,10956339.0,-0.31711578369140625
1714594074.9970407,24350.85,-10103.650000000001,52803.21000000001,10953596.0,-0.3164844512939453
1714594075.138128,24350.85,-10099.68,52807.17,10951682.0,-0.31590843200683594
1714594075.2792156,24350.85,-10095.71,52811.119999999995,10949445.0,-0.3154296875
1714594075.420303,24350.85,-10091.740000000002,52815.08,10946821.0,-0.31479835510253906
1714594075.5613904,24350.85,-10091.740000000002,52819.03,10944363.0,-0.3142108917236328
1714594075.702478,24346.870000000003,-10095.71,52822.990000000005,10941824.0,-0.3135356903076172
1714594075.8435655,24342.9,-10103.650000000001,52826.94,10939600.0,-0.31303977966308594
1714594075.9846528,24338.92,-10111.59,52830.89,10937319.0,-0.31244468688964844
1714594076.1257403,24334.949999999997,-10123.5,52830.89,10934161.0,-0.3117389678955078
1714594076.2668278,24334.949999999997,-10135.41,52830.89,10932386.0,-0.3111763000488281
1714594076.407915,24334.949999999997,-10147.32,52830.89,10929809.0,-0.3106212615966797
1714594076.5490026,24338.92,-10155.259999999998,52826.94,10927193.0,-0.3099803924560547
1714594076.6900902,24342.9,-10163.2,52822.990000000005,10924577.0,-0.30933380126953125
1714594076.8311775,24346.870000000003,-10171.14,52815.08,10922180.0,-0.3086872100830078
1714594076.972265,24354.82,-10175.11,52807.17,10919901.0,-0.3081684112548828
1714594077.1133525,24362.78,-10175.11,52799.25,10917672.0,-0.30756378173828125
1714594077.2544398,24370.730000000003,-10171.14,52795.3,10914778.0,-0.30686378479003906
1714594077.3955274,24378.68,-10167.169999999998,52787.39,10912891.0,-0.30629920959472656
1714594077.536615,24386.620000000003,-10159.23,52783.44,10911322.0,-0.3058643341064453
1714594077.6777022,24390.6,-10147.32,52779.479999999996,10908246.0,-0.3051643371582031
1714594077.8187897,24394.58,-10135.41,52779.479999999996,10905576.0,-0.3044910430908203
1714594077.9598773,24398.550000000003,-10127.470000000001,52779.479999999996,10903721.0,-0.30394554138183594
1714594078.1009645,24398.550000000003,-10119.529999999999,52779.479999999996,10901245.0,-0.30338478088378906
1714594078.242052,24398.550000000003,-10111.59,52783.44,10898817.0,-0.30275917053222656
1714594078.3831396,24394.58,-10107.619999999999,52787.39,10895849.0,-0.3020343780517578
1714594078.524227,24390.6,-10107.619999999999,52791.350000000006,10893509.0,-0.3014183044433594
1714594078.6653144,24386.620000000003,-10111.59,52795.3,10891186.0,-0.3008842468261719
1714594078.806402,24382.65,-10115.560000000001,52799.25,10888469.0,-0.30021095275878906
1714594078.9474893,24378.68,-10123.5,52803.21000000001,10885667.0,-0.2995033264160156
1714594079.0885768,24374.699999999997,-10131.439999999999,52807.17,10883167.0,-0.29888153076171875
1714594079.2296643,24370.730000000003,-10143.349999999999,52807.17,10880904.0,-0.2983245849609375
1714594079.3707516,24370.730000000003,-10155.259999999998,52803.21000000001,10877930.0,-0.29761314392089844
1714594079.5118392,24370.730000000003,-10167.169999999998,52799.25,10875057.0,-0.29689979553222656
1714594079.6529267,24370.730000000003,-10175.11,52795.3,10872895.0,-0.29630470275878906
1714594079.794014,24374.699999999997,-10183.05,52791.350000000006,10870659.0,-0.2957439422607422
1714594079.9351015,24378.68,-10187.02,52783.44,10868119.0,-0.29509735107421875
1714594080.076189,24382.65,-10187.02,52775.53,10865129.0,-0.29434776306152344
1714594080.2172763,24390.6,-10187.02,52767.61,10862707.0,-0.29373931884765625
1714594080.3583639,24398.550000000003,-10183.05,52759.71000000001,10860422.0,-0.2931671142578125
1714594080.4994514,24406.5,-10175.11,52755.75,10858065.0,-0.2925434112548828
1714594080.6405387,24414.449999999997,-10167.169999999998,52751.8,10855273.0,-0.2918052673339844
1714594080.7816262,24418.42,-10155.259999999998,52751.8,10853386.0,-0.29128265380859375
1714594080.9227138,24422.4,-10147.32,52751.8,10851034.0,-0.2907085418701172
1714594081.063801,24426.370000000003,-10139.380000000001,52751.8,10848020.0,-0.2899951934814453
1714594081.2048886,24426.370000000003,-10131.439999999999,52755.75,10845334.0,-0.28928375244140625
1714594081.345976,24426.370000000003,-10127.470000000001,52759.71000000001,10843283.0,-0.2887153625488281
1714594081.4870634,24422.4,-10123.5,52763.66,10840713.0,-0.2881298065185547
1714594081.628151,24418.42,-10123.5,52767.61,10838597.0,-0.28752708435058594
1714594081.7692385,24414.449999999997,-10127.470000000001,52771.57000000001,10835141.0,-0.28672218322753906
1714594081.9103258,24410.480000000003,-10135.41,52775.53,10832911.0,-0.2861518859863281
1714594082.0514133,24406.5,-10143.349999999999,52779.479999999996,10830011.0,-0.2854881286621094
1714594082.1925008,24402.519999999997,-10151.29,52783.44,10827487.0,-0.28482818603515625
1714594082.3335881,24398.550000000003,-10159.23,52783.44,10824565.0,-0.2840728759765625
1714594082.4746757,24398.550000000003,-10171.14,52783.44,10822426.0,-0.2834892272949219
1714594082.6157632,24398.550000000003,-10179.080000000002,52779.479999999996,10819626.0,-0.2828559875488281
1714594082.7568505,24398.550000000003,-10187.02,52775.53,10817077.0,-0.2821979522705078
1714594082.897938,24402.519999999997,-10194.96,52767.61,10814145.0,-0.28143882751464844
1714594083.0390255,24406.5,-10198.93,52759.71000000001,10812574.0,-0.28095245361328125
1714594083.1801128,24410.480000000003,-10198.93,52751.8,10809863.0,-0.2803230285644531
1714594083.3212004,24414.449999999997,-10194.96,52743.89,10807093.0,-0.27963829040527344
1714594083.462288,24418.42,-10190.990000000002,52735.97,10804663.0,-0.27895355224609375
1714594083.6033752,24426.370000000003,-10187.02,52728.07000000001,10803037.0,-0.2784614562988281
1714594083.7444627,24434.32,-10179.080000000002,52724.11,10800374.0,-0.27783966064453125
1714594083.8855503,24438.300000000003,-10167.169999999998,52724.11,10798071.0,-0.27722930908203125
1714594084.0266376,24442.28,-10155.259999999998,52724.11,10795465.0,-0.2765178680419922
1714594084.167725,24442.28,-10147.32,52724.11,10793527.0,-0.27600669860839844
1714594084.3088126,24442.28,-10139.380000000001,52728.07000000001,10790870.0,-0.2753887176513672
1714594084.4499,24442.28,-10135.41,52732.020000000004,10788150.0,-0.2747230529785156
1714594084.5909874,24438.300000000003,-10131.439999999999,52739.92,10785335.0,-0.2739849090576172
1714594084.732075,24434.32,-10131.439999999999,52747.850000000006,10783290.0,-0.2734546661376953
1714594084.8731623,24430.35,-10135.41,52751.8,10780590.0,-0.27281761169433594
1714594085.0142498,24426.370000000003,-10143.349999999999,52755.75,10777743.0,-0.27213478088378906
1714594085.1553373,24422.4,-10151.29,52759.71000000001,10774865.0,-0.27138519287109375
