,x,y,z,temp,temp_error
1708449662.459587,-15677.400000000001,6741.059999999998,2266.209999999999,11084007.0,-0.3505973815917969
1708449662.5954533,-16647.3,6895.889999999999,2175.25,11075877.0,-0.3491096496582031
1708449662.7313197,-17633.1,7022.93,2076.3700000000026,11067797.0,-0.3476428985595703
1708449662.8671858,-18634.8,7126.1500000000015,1973.550000000003,11059916.0,-0.3460731506347656
1708449663.0030522,-19652.4,7205.550000000003,1866.760000000002,11051640.0,-0.3443431854248047
1708449663.1389184,-20685.9,7257.1600000000035,1756.0199999999968,11044516.0,-0.3427867889404297
1708449663.2747848,-21735.3,7280.980000000003,1645.2799999999988,11037400.0,-0.34124183654785156
1708449663.410651,-22804.58,7284.949999999997,1538.5,11030252.0,-0.3396186828613281
1708449663.5465171,-23889.75,7265.0999999999985,1435.6600000000035,11022829.0,-0.33786773681640625
1708449663.6823835,-24990.82,7225.4000000000015,1336.7900000000009,11016760.0,-0.3363227844238281
1708449663.8182497,-26107.8,7161.879999999997,1241.8700000000026,11010350.0,-0.3348407745361328
1708449663.954116,-27240.68,7078.510000000002,1154.8600000000006,11003913.0,-0.3332538604736328
1708449664.0899823,-28385.48,6979.260000000002,1075.760000000002,10997181.0,-0.3315258026123047
1708449664.2258487,-29546.18,6860.1600000000035,1004.5699999999997,10991907.0,-0.33010101318359375
1708449664.3617148,-30718.8,6725.18,945.25,10986357.0,-0.3287162780761719
1708449664.4975812,-31903.35,6574.32,893.8300000000017,10980512.0,-0.3271980285644531
1708449664.6334474,-33099.82,6415.519999999997,854.2799999999988,10974391.0,-0.3255653381347656
1708449664.7693136,-34304.25,6240.8399999999965,826.5899999999965,10969679.0,-0.3242511749267578
1708449664.90518,-35516.62,6054.25,810.7699999999968,10964817.0,-0.3229694366455078
1708449665.0410461,-36732.98,5859.720000000001,806.8199999999997,10959373.0,-0.321533203125
1708449665.1769125,-37953.3,5657.25,814.7300000000032,10954053.0,-0.3200187683105469
1708449665.3127787,-39173.62,5446.8399999999965,834.5,10950220.0,-0.3188610076904297
1708449665.448645,-40393.95,5224.519999999997,866.1399999999994,10945806.0,-0.3177146911621094
1708449665.5845113,-41606.32,4998.230000000003,909.6500000000015,10941371.0,-0.3164520263671875
1708449665.7203774,-42810.75,4767.970000000001,961.0699999999997,10937022.0,-0.31511878967285156
1708449665.8562438,-43999.28,4533.739999999998,1024.3399999999965,10934011.0,-0.31416893005371094
1708449665.99211,-45171.9,4291.57,1099.489999999998,10930769.0,-0.31322479248046875
1708449666.1279764,-46324.65,4045.4300000000003,1182.550000000003,10927195.0,-0.3121356964111328
1708449666.2638426,-47453.55,3799.290000000001,1277.4599999999991,10924194.0,-0.31109046936035156
1708449666.399709,-48554.62,3549.1800000000003,1380.300000000003,10922618.0,-0.3103961944580078
1708449666.5355752,-49619.93,3299.0699999999997,1487.0800000000017,10920937.0,-0.30977630615234375
1708449666.6714413,-50649.45,3048.959999999999,1601.7699999999968,10918890.0,-0.3090019226074219
1708449666.8073077,-51639.229999999996,2802.8199999999997,1720.4199999999983,10917774.0,-0.30834388732910156
1708449666.943174,-52589.25,2556.6800000000003,1839.0699999999997,10917799.0,-0.308013916015625
1708449667.0790403,-53491.58,2314.510000000002,1961.6800000000003,10916889.0,-0.30759620666503906
1708449667.2149065,-54346.2,2076.3099999999977,2084.279999999999,10915882.0,-0.3071022033691406
1708449667.3507729,-55149.16,1842.0800000000017,2206.8899999999994,10914897.0,-0.30661582946777344
1708449667.486639,-55900.43,1615.7900000000009,2329.5,10915010.0,-0.30638885498046875
1708449667.6225054,-56600.03,1397.4400000000023,2448.1399999999994,10914122.0,-0.3060894012451172
1708449667.7583716,-57247.95,1187.0299999999988,2558.8899999999994,10912642.0,-0.3056354522705078
1708449667.8942378,-57848.18,984.5599999999977,2665.6699999999983,10910946.0,-0.30513572692871094
1708449668.0301042,-58396.729999999996,794.0,2768.5,10909892.0,-0.3048248291015625
1708449668.1659703,-58897.58,611.3799999999974,2863.4199999999983,10907650.0,-0.3043498992919922
1708449668.3018367,-59354.7,440.66999999999825,2950.4300000000003,10905305.0,-0.3038063049316406
1708449668.437703,-59768.1,281.8700000000026,3029.529999999999,10902593.0,-0.30318450927734375
1708449668.5735693,-60141.75,134.9800000000032,3104.6699999999983,10900367.0,-0.3026924133300781
1708449668.7094355,-60479.630000000005,0.0,3171.9100000000035,10897365.0,-0.30207252502441406
1708449668.8453016,-60781.729999999996,-127.04000000000087,3231.230000000003,10894538.0,-0.30143165588378906
1708449668.981168,-61052.03,-242.16999999999825,3282.6500000000015,10891258.0,-0.3007221221923828
1708449669.1170342,-61294.5,-349.3600000000006,3330.1100000000006,10888447.0,-0.3000640869140625
1708449669.2529006,-61509.16,-444.6399999999994,3373.6200000000026,10885311.0,-0.2994060516357422
1708449669.3887668,-61703.93,-531.9799999999996,3409.209999999999,10882116.0,-0.29865455627441406
1708449669.5246332,-61874.85,-611.380000000001,3440.8499999999985,10878728.0,-0.29788970947265625
1708449669.6604993,-62025.9,-682.8400000000001,3468.529999999999,10875893.0,-0.2971916198730469
1708449669.7963655,-62161.05,-750.3300000000017,3492.260000000002,10872719.0,-0.2964763641357422
1708449669.932232,-62280.31,-809.880000000001,3512.040000000001,10869848.0,-0.2957496643066406
1708449670.068098,-62387.630000000005,-861.4900000000016,3531.8199999999997,10866811.0,-0.29501914978027344
1708449670.2039645,-62483.03,-909.130000000001,3547.6399999999994,10863979.0,-0.2942848205566406
1708449670.3398306,-62566.5,-952.7999999999993,3559.5,10860885.0,-0.29357337951660156
1708449670.475697,-62638.05,-992.5,3571.3700000000026,10858030.0,-0.29283905029296875
1708449670.6115632,-62701.65,-1028.2299999999996,3579.269999999997,10855171.0,-0.29212188720703125
1708449670.7474296,-62757.31,-1059.9900000000016,3587.1800000000003,10852457.0,-0.2914104461669922
1708449670.8832958,-62805.0,-1087.7799999999988,3595.0899999999965,10849463.0,-0.2906932830810547
1708449671.019162,-62848.729999999996,-1111.5999999999985,3599.050000000003,10846568.0,-0.289947509765625
1708449671.1550283,-62884.5,-1131.4500000000007,3603.0,10843697.0,-0.2892417907714844
1708449671.2908945,-62916.31,-1151.2999999999993,3606.959999999999,10841001.0,-0.28851318359375
1708449671.426761,-62944.130000000005,-1167.1800000000003,3610.9100000000035,10838073.0,-0.287811279296875
1708449671.562627,-62967.979999999996,-1183.0600000000013,3610.9100000000035,10835413.0,-0.2870903015136719
1708449671.6984935,-62987.85,-1194.9700000000012,3610.9100000000035,10832550.0,-0.28638267517089844
1708449671.8343596,-63007.729999999996,-1206.880000000001,3610.9100000000035,10829828.0,-0.2856597900390625
1708449671.9702258,-63023.630000000005,-1214.8199999999997,3610.9100000000035,10826999.0,-0.28496360778808594
1708449672.1060922,-63035.56,-1222.7599999999984,3610.9100000000035,10824309.0,-0.28424072265625
1708449672.2419584,-63047.479999999996,-1230.7000000000007,3610.9100000000035,10821361.0,-0.2835350036621094
1708449672.3778248,-63059.4,-1238.6399999999994,3610.9100000000035,10818650.0,-0.2828102111816406
1708449672.513691,-63067.36,-1242.6100000000006,3610.9100000000035,10815780.0,-0.28211402893066406
1708449672.6495574,-63075.31,-1246.5800000000017,3610.9100000000035,10813079.0,-0.2813854217529297
1708449672.7854235,-63083.25,-1250.5499999999993,3610.9100000000035,10810124.0,-0.2806835174560547
1708449672.92129,-63087.229999999996,-1254.5200000000004,3610.9100000000035,10807346.0,-0.2799491882324219
1708449673.057156,-63091.2,-1258.4900000000016,3610.9100000000035,10804520.0,-0.2792625427246094
1708449673.1930223,-63095.18,-1262.4599999999991,3610.9100000000035,10801667.0,-0.27851104736328125
1708449673.3288887,-63099.16,-1262.4599999999991,3610.9100000000035,10798948.0,-0.2778358459472656
1708449673.4647548,-63103.130000000005,-1262.4599999999991,3610.9100000000035,10796149.0,-0.2770843505859375
1708449673.6006212,-63103.130000000005,-1266.4300000000003,3610.9100000000035,10793280.0,-0.27640342712402344
1708449673.7364874,-63103.130000000005,-1266.4300000000003,3610.9100000000035,10790517.0,-0.2756614685058594
1708449673.8723538,-63103.130000000005,-1266.4300000000003,3610.9100000000035,10787726.0,-0.2749805450439453
1708449674.00822,-63103.130000000005,-1266.4300000000003,3610.9100000000035,10784861.0,-0.27422332763671875
1708449674.1440861,-63103.130000000005,-1266.4300000000003,3610.9100000000035,10782127.0,-0.2735576629638672
1708449674.2799525,-63103.130000000005,-1266.4300000000003,3610.9100000000035,10779222.0,-0.2727985382080078
1708449674.4158187,-63103.130000000005,-1266.4300000000003,3610.9100000000035,10776586.0,-0.2721366882324219
1708449674.551685,-63103.130000000005,-1266.4300000000003,3610.9100000000035,10773555.0,-0.2713623046875
1708449674.6875513,-63103.130000000005,-1266.4300000000003,3610.9100000000035,10770828.0,-0.2706890106201172
1708449674.8234177,-63103.130000000005,-1266.4300000000003,3610.9100000000035,10767959.0,-0.2699451446533203
1708449674.9592838,-63103.130000000005,-1266.4300000000003,3610.9100000000035,10765266.0,-0.269256591796875
1708449675.09515,-63103.130000000005,-1266.4300000000003,3610.9100000000035,10762175.0,-0.26848793029785156
1708449675.2310164,-63103.130000000005,-1266.4300000000003,3614.8700000000026,10759624.0,-0.26783180236816406
1708449675.3668826,-63103.130000000005,-1266.4300000000003,3614.8700000000026,10756627.0,-0.2670707702636719
1708449675.502749,-63103.130000000005,-1266.4300000000003,3614.8700000000026,10753886.0,-0.2663841247558594
1708449675.6386151,-63103.130000000005,-1266.4300000000003,3614.8700000000026,10751018.0,-0.2656364440917969
1708449675.7744815,-63103.130000000005,-1266.4300000000003,3614.8700000000026,10748413.0,-0.2649669647216797
1708449675.9103477,-63103.130000000005,-1266.4300000000003,3614.8700000000026,10745340.0,-0.26422119140625
1708449676.046214,-63103.130000000005,-1266.4300000000003,3614.8700000000026,10742739.0,-0.2635326385498047
1708449676.1820803,-63103.130000000005,-1266.4300000000003,3614.8700000000026,10739716.0,-0.2627696990966797
1708449676.3179464,-63103.130000000005,-1266.4300000000003,3614.8700000000026,10737070.0,-0.26209068298339844
1708449676.4538128,-63103.130000000005,-1266.4300000000003,3614.8700000000026,10734066.0,-0.2613391876220703
1708449676.589679,-63099.16,-1266.4300000000003,3614.8700000000026,10731304.0,-0.26064300537109375
1708449676.7255454,-63099.16,-1266.4300000000003,3614.8700000000026,10728367.0,-0.25989723205566406
1708449676.8614116,-63095.18,-1266.4300000000003,3614.8700000000026,10725868.0,-0.25922584533691406
1708449676.997278,-63095.18,-1266.4300000000003,3614.8700000000026,10722848.0,-0.2584800720214844
1708449677.1331441,-63095.18,-1266.4300000000003,3614.8700000000026,10720218.0,-0.25780296325683594
1708449677.2690103,-63091.2,-1266.4300000000003,3614.8700000000026,10717256.0,-0.25705718994140625
1708449677.4048767,-63087.229999999996,-1266.4300000000003,3614.8700000000026,10714640.0,-0.2563800811767578
1708449677.5407429,-63087.229999999996,-1266.4300000000003,3614.8700000000026,10711770.0,-0.2556476593017578
1708449677.6766093,-63087.229999999996,-1266.4300000000003,3614.8700000000026,10709079.0,-0.25495338439941406
1708449677.8124754,-63087.229999999996,-1266.4300000000003,3614.8700000000026,10706108.0,-0.25421714782714844
1708449677.9483418,-63083.25,-1266.4300000000003,3614.8700000000026,10703488.0,-0.2535381317138672
1708449678.084208,-63083.25,-1266.4300000000003,3610.9100000000035,10700607.0,-0.25280189514160156
1708449678.2200742,-63083.25,-1266.4300000000003,3610.9100000000035,10697934.0,-0.2521190643310547
1708449678.3559406,-63083.25,-1266.4300000000003,3606.959999999999,10695034.0,-0.2513866424560547
1708449678.4918067,-63083.25,-1266.4300000000003,3606.959999999999,10692599.0,-0.2507305145263672
1708449678.6276731,-63083.25,-1266.4300000000003,3603.0,10689621.0,-0.2499980926513672
1708449678.7635393,-63079.28,-1266.4300000000003,3599.050000000003,10687106.0,-0.24931907653808594
1708449678.8994057,-63079.28,-1266.4300000000003,3599.050000000003,10684202.0,-0.24860191345214844
1708449679.035272,-63079.28,-1266.4300000000003,3595.0899999999965,10681527.0,-0.24790382385253906
1708449679.1711383,-63075.31,-1266.4300000000003,3591.1399999999994,10678716.0,-0.2472095489501953
1708449679.3070045,-63075.31,-1266.4300000000003,3587.1800000000003,10676146.0,-0.24652099609375
1708449679.4428706,-63075.31,-1266.4300000000003,3587.1800000000003,10673138.0,-0.24579620361328125
1708449679.578737,-63071.33,-1266.4300000000003,3583.230000000003,10670560.0,-0.2451000213623047
1708449679.7146032,-63071.33,-1266.4300000000003,3579.269999999997,10667886.0,-0.24443626403808594
1708449679.8504696,-63071.33,-1266.4300000000003,3575.3199999999997,10665226.0,-0.24373245239257812
1708449679.9863358,-63071.33,-1266.4300000000003,3571.3700000000026,10662389.0,-0.24303627014160156
1708449680.1222022,-63067.36,-1266.4300000000003,3571.3700000000026,10659860.0,-0.2423419952392578
1708449680.2580683,-63067.36,-1266.4300000000003,3567.4100000000035,10657037.0,-0.2416667938232422
1708449680.3939345,-63067.36,-1266.4300000000003,3563.449999999997,10654509.0,-0.24097633361816406
1708449680.529801,-63067.36,-1266.4300000000003,3559.5,10651790.0,-0.24030685424804688
1708449680.665667,-63067.36,-1266.4300000000003,3555.550000000003,10649176.0,-0.23960494995117188
1708449680.8015335,-63067.36,-1266.4300000000003,3551.5899999999965,10646420.0,-0.2389354705810547
1708449680.9373996,-63067.36,-1266.4300000000003,3547.6399999999994,10643879.0,-0.238250732421875
1708449681.073266,-63067.36,-1266.4300000000003,3543.6800000000003,10641037.0,-0.23755836486816406
1708449681.2091322,-63067.36,-1266.4300000000003,3539.730000000003,10638615.0,-0.2368907928466797
1708449681.3449984,-63067.36,-1266.4300000000003,3535.769999999997,10635775.0,-0.23621368408203125
1708449681.4808648,-63067.36,-1266.4300000000003,3531.8199999999997,10633217.0,-0.2355213165283203
1708449681.616731,-63067.36,-1266.4300000000003,3531.8199999999997,10630504.0,-0.23485946655273438
1708449681.7525973,-63067.36,-1266.4300000000003,3531.8199999999997,10628046.0,-0.23418617248535156
1708449681.8884635,-63067.36,-1266.4300000000003,3527.8600000000006,10625229.0,-0.23350906372070312
1708449682.02433,-63067.36,-1266.4300000000003,3523.9100000000035,10622796.0,-0.23284530639648438
1708449682.160196,-63067.36,-1266.4300000000003,3519.949999999997,10620056.0,-0.2321758270263672
1708449682.2960625,-63067.36,-1266.4300000000003,3516.0,10617592.0,-0.23150634765625
1708449682.4319286,-63067.36,-1266.4300000000003,3512.040000000001,10615132.0,-0.2308940887451172
1708449682.5677948,-63067.36,-1266.4300000000003,3512.040000000001,10612548.0,-0.2301959991455078
1708449682.7036612,-63067.36,-1266.4300000000003,3512.040000000001,10609787.0,-0.22954559326171875
1708449682.8395274,-63067.36,-1266.4300000000003,3508.0800000000017,10607359.0,-0.22887039184570312
1708449682.9753938,-63067.36,-1270.4000000000015,3504.1299999999974,10604798.0,-0.22824478149414062
1708449683.11126,-63067.36,-1270.4000000000015,3504.1299999999974,10602156.0,-0.22754859924316406
1708449683.2471263,-63067.36,-1270.4000000000015,3504.1299999999974,10599573.0,-0.2269153594970703
1708449683.3829925,-63067.36,-1270.4000000000015,3500.1699999999983,10597026.0,-0.226226806640625
1708449683.5188587,-63063.380000000005,-1270.4000000000015,3496.220000000001,10594495.0,-0.22562026977539062
1708449683.654725,-63063.380000000005,-1270.4000000000015,3492.260000000002,10592018.0,-0.22493553161621094
1708449683.7905912,-63063.380000000005,-1270.4000000000015,3492.260000000002,10589420.0,-0.22430992126464844
1708449683.9264576,-63063.380000000005,-1270.4000000000015,3488.3099999999977,10586968.0,-0.22363853454589844
1708449684.0623238,-63063.380000000005,-1270.4000000000015,3488.3099999999977,10584536.0,-0.2230358123779297
1708449684.1981902,-63063.380000000005,-1274.369999999999,3484.3499999999985,10582047.0,-0.22236061096191406
1708449684.3340564,-63063.380000000005,-1274.369999999999,3484.3499999999985,10579457.0,-0.22174644470214844
1708449684.4699225,-63063.380000000005,-1274.369999999999,3480.4000000000015,10576969.0,-0.22106361389160156
1708449684.605789,-63063.380000000005,-1278.3400000000001,3480.4000000000015,10574404.0,-0.22045516967773438
1708449684.741655,-63059.4,-1278.3400000000001,3480.4000000000015,10572032.0,-0.2198009490966797
1708449684.8775215,-63059.4,-1278.3400000000001,3480.4000000000015,10569487.0,-0.2191925048828125
1708449685.0133877,-63059.4,-1278.3400000000001,3480.4000000000015,10567154.0,-0.218536376953125
1708449685.149254,-63059.4,-1278.3400000000001,3480.4000000000015,10564698.0,-0.2179431915283203
1708449685.2851202,-63059.4,-1278.3400000000001,3480.4000000000015,10562265.0,-0.21728134155273438
1708449685.4209867,-63059.4,-1278.3400000000001,3476.4400000000023,10559940.0,-0.2167034149169922
1708449685.5568528,-63055.43,-1278.3400000000001,3476.4400000000023,10557403.0,-0.21602821350097656
1708449685.692719,-63055.43,-1278.3400000000001,3476.4400000000023,10555033.0,-0.21544837951660156
1708449685.8285854,-63055.43,-1278.3400000000001,3476.4400000000023,10552489.0,-0.21477890014648438
1708449685.9644516,-63055.43,-1278.3400000000001,3476.4400000000023,10550191.0,-0.2142047882080078
1708449686.100318,-63055.43,-1278.3400000000001,3472.489999999998,10547679.0,-0.21353530883789062
1708449686.2361841,-63055.43,-1278.3400000000001,3472.489999999998,10545308.0,-0.21295738220214844
1708449686.3720505,-63055.43,-1278.3400000000001,3472.489999999998,10542787.0,-0.21229934692382812
1708449686.5079167,-63055.43,-1278.3400000000001,3472.489999999998,10540559.0,-0.2117290496826172
1708449686.6437829,-63051.45,-1278.3400000000001,3472.489999999998,10537990.0,-0.2110576629638672
1708449686.7796493,-63051.45,-1274.369999999999,3472.489999999998,10535881.0,-0.21051025390625
1708449686.9155154,-63051.45,-1274.369999999999,3472.489999999998,10533370.0,-0.20985794067382812
1708449687.0513818,-63051.45,-1274.369999999999,3472.489999999998,10531011.0,-0.2092761993408203
1708449687.187248,-63047.479999999996,-1274.369999999999,3472.489999999998,10528411.0,-0.2086181640625
1708449687.3231144,-63047.479999999996,-1274.369999999999,3468.529999999999,10526339.0,-0.2080535888671875
1708449687.4589806,-63047.479999999996,-1274.369999999999,3468.529999999999,10523715.0,-0.20740509033203125
1708449687.5948467,-63047.479999999996,-1274.369999999999,3468.529999999999,10521551.0,-0.20684432983398438
1708449687.7307131,-63043.5,-1274.369999999999,3464.5800000000017,10519059.0,-0.20620346069335938
1708449687.8665793,-63043.5,-1274.369999999999,3464.5800000000017,10517065.0,-0.20566177368164062
1708449688.0024457,-63043.5,-1274.369999999999,3464.5800000000017,10514510.0,-0.20502471923828125
1708449688.1383119,-63039.53,-1274.369999999999,3460.6200000000026,10512390.0,-0.2044525146484375
1708449688.2741783,-63039.53,-1274.369999999999,3460.6200000000026,10509824.0,-0.20383071899414062
1708449688.4100444,-63039.53,-1274.369999999999,3456.6699999999983,10507875.0,-0.2032909393310547
1708449688.5459108,-63039.53,-1274.369999999999,3452.709999999999,10505369.0,-0.2026691436767578
1708449688.681777,-63035.56,-1274.369999999999,3448.760000000002,10503219.0,-0.2021026611328125
1708449688.8176432,-63035.56,-1274.369999999999,3448.760000000002,10500794.0,-0.20149803161621094
1708449688.9535096,-63035.56,-1274.369999999999,3444.800000000003,10498711.0,-0.20093727111816406
1708449689.0893757,-63035.56,-1274.369999999999,3440.8499999999985,10496314.0,-0.2003498077392578
1708449689.2252421,-63035.56,-1274.369999999999,3436.8899999999994,10494275.0,-0.19977760314941406
1708449689.3611083,-63035.56,-1274.369999999999,3436.8899999999994,10491773.0,-0.1991729736328125
1708449689.4969747,-63035.56,-1274.369999999999,3432.9400000000023,10489781.0,-0.1986255645751953
