,x,y,z,temp,temp_error
1708452269.3244123,11281.050000000003,-7951.91,1237.9100000000035,10550419.0,-0.2091693878173828
1708452269.4581997,12000.519999999997,-8015.43,1245.8199999999997,10554339.0,-0.2100391387939453
1708452269.5919874,12731.919999999998,-8063.07,1253.7300000000032,10557469.0,-0.2108173370361328
1708452269.7257748,13475.25,-8090.860000000001,1261.6399999999994,10560113.0,-0.2114238739013672
1708452269.8595622,14230.5,-8110.709999999999,1269.550000000003,10564134.0,-0.2122516632080078
1708452269.9933498,15001.650000000001,-8118.6500000000015,1277.4599999999991,10568186.0,-0.21324729919433594
1708452270.1271372,15784.730000000003,-8114.68,1281.4199999999983,10571333.0,-0.21397781372070312
1708452270.2609246,16583.699999999997,-8102.77,1289.3300000000017,10574944.0,-0.2147083282470703
1708452270.3947122,17398.58,-8082.919999999998,1297.239999999998,10579584.0,-0.2158355712890625
1708452270.5284996,18225.370000000003,-8055.130000000001,1305.1500000000015,10583240.0,-0.21673202514648438
1708452270.662287,19068.08,-8019.4000000000015,1313.0599999999977,10586334.0,-0.21740150451660156
1708452270.7960746,19926.68,-7979.700000000001,1320.9700000000012,10591196.0,-0.2185039520263672
1708452270.929862,20801.18,-7936.029999999999,1328.8799999999974,10594986.0,-0.2195148468017578
1708452271.0636494,21691.58,-7884.419999999998,1336.7900000000009,10598005.0,-0.22025680541992188
1708452271.197437,22601.85,-7832.810000000001,1344.699999999997,10602159.0,-0.22113990783691406
1708452271.3312244,23528.019999999997,-7773.259999999998,1356.5699999999997,10606685.0,-0.22234153747558594
1708452271.4650118,24470.1,-7705.77,1368.4300000000003,10610063.0,-0.22318458557128906
1708452271.5987995,25432.050000000003,-7638.279999999999,1380.300000000003,10613396.0,-0.22394371032714844
1708452271.7325869,26409.9,-7566.82,1392.1600000000035,10618235.0,-0.22515869140625
1708452271.8663743,27403.65,-7487.419999999998,1407.9800000000032,10621472.0,-0.22605323791503906
1708452272.000162,28413.300000000003,-7404.049999999999,1423.800000000003,10624196.0,-0.2267322540283203
1708452272.1339493,29442.83,-7320.68,1439.6200000000026,10628603.0,-0.22776412963867188
1708452272.2677367,30484.28,-7233.34,1459.3899999999994,10632089.0,-0.22881126403808594
1708452272.4015243,31541.620000000003,-7138.060000000001,1479.1699999999983,10634399.0,-0.22946739196777344
1708452272.5353117,32610.9,-7038.810000000001,1502.9000000000015,10637975.0,-0.2302875518798828
1708452272.669099,33692.100000000006,-6931.619999999999,1526.6299999999974,10641675.0,-0.23136520385742188
1708452272.8028867,34785.229999999996,-6816.490000000002,1550.3600000000006,10643924.0,-0.23204612731933594
1708452272.936674,35886.3,-6693.419999999998,1578.050000000003,10646153.0,-0.2326183319091797
1708452273.0704615,36991.36,-6566.380000000001,1605.7300000000032,10649968.0,-0.2336254119873047
1708452273.2042491,38096.41,-6427.43,1637.3700000000026,10652039.0,-0.2343578338623047
1708452273.3380365,39201.46000000001,-6280.540000000001,1669.010000000002,10653583.0,-0.2348155975341797
1708452273.471824,40302.53,-6125.709999999999,1704.5999999999985,10656746.0,-0.23561477661132812
1708452273.6056116,41391.67999999999,-5958.970000000001,1744.1600000000035,10659151.0,-0.23641395568847656
1708452273.739399,42468.91,-5780.32,1783.699999999997,10660556.0,-0.2368755340576172
1708452273.8731863,43526.25,-5593.73,1827.2099999999991,10662628.0,-0.2373981475830078
1708452274.006974,44559.75,-5395.23,1870.7099999999991,10665435.0,-0.2382354736328125
1708452274.1407614,45561.46000000001,-5184.82,1918.1699999999983,10666874.0,-0.23873329162597656
1708452274.2745488,46531.36,-4966.470000000001,1969.5899999999965,10668466.0,-0.23910903930664062
1708452274.4083364,47461.5,-4744.1500000000015,2021.0,10671631.0,-0.23995208740234375
1708452274.5421238,48347.92,-4513.889999999999,2076.3700000000026,10673404.0,-0.24053573608398438
1708452274.6759112,49186.649999999994,-4275.689999999999,2131.75,10674896.0,-0.24091148376464844
1708452274.8096988,49973.71000000001,-4037.4900000000016,2187.1100000000006,10677811.0,-0.24155807495117188
1708452274.9434862,50705.100000000006,-3799.290000000001,2242.480000000003,10680654.0,-0.2423534393310547
1708452275.0772736,51380.850000000006,-3557.119999999999,2301.8099999999977,10682386.0,-0.24283790588378906
1708452275.2110612,52000.96000000001,-3322.8899999999994,2357.1800000000003,10684468.0,-0.24328231811523438
1708452275.3448486,52565.41,-3096.5999999999985,2412.550000000003,10687244.0,-0.24407196044921875
1708452275.478636,53074.21000000001,-2878.25,2467.9199999999983,10688726.0,-0.24454879760742188
1708452275.6124237,53531.33,-2667.84,2519.3300000000017,10689822.0,-0.24487686157226562
1708452275.746211,53936.78,-2469.34,2566.800000000003,10691826.0,-0.2454357147216797
1708452275.8799984,54298.5,-2286.720000000001,2610.300000000003,10692742.0,-0.24588966369628906
1708452276.013786,54616.5,-2116.0099999999984,2653.800000000003,10692713.0,-0.24606704711914062
1708452276.1475735,54894.75,-1961.1800000000003,2693.3499999999985,10692775.0,-0.2462139129638672
1708452276.2813609,55137.229999999996,-1818.2599999999984,2728.949999999997,10692943.0,-0.24654388427734375
1708452276.4151485,55347.91,-1687.25,2760.5899999999965,10692067.0,-0.24657440185546875
1708452276.548936,55530.75,-1572.119999999999,2788.269999999997,10690544.0,-0.24641036987304688
1708452276.6827233,55689.75,-1468.9000000000015,2812.0,10689984.0,-0.24650955200195312
1708452276.816511,55828.880000000005,-1377.5900000000001,2831.779999999999,10688350.0,-0.2463970184326172
1708452276.9502983,55948.130000000005,-1294.2200000000012,2847.5999999999985,10686115.0,-0.2460918426513672
1708452277.0840857,56051.490000000005,-1222.7599999999984,2863.4199999999983,10684681.0,-0.24588966369628906
1708452277.2178733,56138.92,-1159.2400000000016,2875.279999999999,10682937.0,-0.2457294464111328
1708452277.3516607,56214.46000000001,-1103.6599999999999,2887.1500000000015,10680615.0,-0.24536895751953125
1708452277.4854481,56278.05,-1056.0200000000004,2895.0599999999977,10678214.0,-0.24489402770996094
1708452277.6192358,56333.71000000001,-1016.3199999999997,2902.970000000001,10676761.0,-0.2447071075439453
1708452277.7530231,56381.41,-980.5900000000001,2906.9199999999983,10674365.0,-0.24428176879882812
1708452277.8868105,56421.16,-948.8300000000017,2910.8799999999974,10671708.0,-0.24374008178710938
1708452278.0205982,56452.96000000001,-925.0099999999984,2914.8300000000017,10670041.0,-0.24340057373046875
1708452278.1543856,56480.78,-901.1899999999987,2918.790000000001,10667657.0,-0.24297142028808594
1708452278.288173,56504.630000000005,-881.3400000000001,2918.790000000001,10664906.0,-0.24241065979003906
1708452278.4219606,56524.5,-865.4599999999991,2918.790000000001,10662851.0,-0.24189376831054688
1708452278.555748,56540.41,-853.5499999999993,2918.790000000001,10660827.0,-0.24152565002441406
1708452278.6895354,56552.33,-841.6399999999994,2918.790000000001,10658298.0,-0.2409648895263672
1708452278.823323,56564.25,-833.7000000000007,2918.790000000001,10655523.0,-0.24030685424804688
1708452278.9571104,56572.21000000001,-829.7299999999996,2918.790000000001,10653731.0,-0.23992156982421875
1708452279.0908978,56580.16,-825.7599999999984,2918.790000000001,10651156.0,-0.2393474578857422
1708452279.2246854,56588.100000000006,-821.7900000000009,2918.790000000001,10648343.0,-0.2386951446533203
1708452279.3584728,56592.08,-817.8199999999997,2918.790000000001,10646544.0,-0.23821067810058594
1708452279.4922602,56596.05,-817.8199999999997,2918.790000000001,10644074.0,-0.23769569396972656
1708452279.6260478,56600.03,-813.8499999999985,2918.790000000001,10641488.0,-0.2370777130126953
1708452279.7598352,56604.0,-813.8499999999985,2918.790000000001,10639130.0,-0.23642539978027344
1708452279.8936226,56604.0,-813.8499999999985,2918.790000000001,10637015.0,-0.235992431640625
1708452280.0274103,56607.990000000005,-813.8499999999985,2918.790000000001,10634262.0,-0.2353382110595703
1708452280.1611977,56607.990000000005,-813.8499999999985,2918.790000000001,10631625.0,-0.23464393615722656
1708452280.294985,56607.990000000005,-813.8499999999985,2918.790000000001,10629787.0,-0.23421096801757812
1708452280.4287727,56607.990000000005,-813.8499999999985,2918.790000000001,10627254.0,-0.2335987091064453
1708452280.56256,56607.990000000005,-813.8499999999985,2918.790000000001,10624312.0,-0.23290061950683594
1708452280.6963475,56607.990000000005,-813.8499999999985,2918.790000000001,10622506.0,-0.2323741912841797
1708452280.830135,56607.990000000005,-813.8499999999985,2918.790000000001,10620075.0,-0.23181724548339844
1708452280.9639225,56607.990000000005,-813.8499999999985,2918.790000000001,10617264.0,-0.2311573028564453
1708452281.09771,56607.990000000005,-813.8499999999985,2918.790000000001,10614815.0,-0.23046493530273438
1708452281.2314975,56607.990000000005,-813.8499999999985,2918.790000000001,10612920.0,-0.2300281524658203
1708452281.365285,56607.990000000005,-813.8499999999985,2918.790000000001,10610200.0,-0.22936439514160156
1708452281.4990723,56607.990000000005,-817.8199999999997,2918.790000000001,10607219.0,-0.2286224365234375
1708452281.63286,56607.990000000005,-817.8199999999997,2918.790000000001,10605581.0,-0.22815704345703125
1708452281.7666473,56607.990000000005,-821.7900000000009,2918.790000000001,10602983.0,-0.22754669189453125
1708452281.9004347,56607.990000000005,-821.7900000000009,2918.790000000001,10600078.0,-0.2268352508544922
1708452282.0342224,56607.990000000005,-821.7900000000009,2918.790000000001,10598108.0,-0.22625350952148438
1708452282.1680098,56607.990000000005,-821.7900000000009,2918.790000000001,10595778.0,-0.22572898864746094
1708452282.3017972,56607.990000000005,-821.7900000000009,2918.790000000001,10592976.0,-0.2250537872314453
1708452282.4355848,56607.990000000005,-821.7900000000009,2918.790000000001,10590349.0,-0.2243213653564453
1708452282.5693722,56607.990000000005,-821.7900000000009,2918.790000000001,10588411.0,-0.22387123107910156
1708452282.7031596,56607.990000000005,-825.7599999999984,2918.790000000001,10585697.0,-0.22320175170898438
1708452282.8369472,56607.990000000005,-825.7599999999984,2918.790000000001,10582829.0,-0.2224712371826172
1708452282.9707346,56607.990000000005,-825.7599999999984,2918.790000000001,10580879.0,-0.22194290161132812
1708452283.104522,56607.990000000005,-829.7299999999996,2918.790000000001,10578445.0,-0.2213573455810547
1708452283.2383096,56607.990000000005,-829.7299999999996,2918.790000000001,10575727.0,-0.22069168090820312
1708452283.372097,56607.990000000005,-833.7000000000007,2918.790000000001,10573263.0,-0.21999549865722656
1708452283.5058844,56607.990000000005,-833.7000000000007,2918.790000000001,10571132.0,-0.2195110321044922
1708452283.639672,56604.0,-833.7000000000007,2918.790000000001,10568512.0,-0.21885108947753906
1708452283.7734594,56604.0,-833.7000000000007,2918.790000000001,10565602.0,-0.21810340881347656
1708452283.9072468,56600.03,-833.7000000000007,2918.790000000001,10563800.0,-0.2176055908203125
1708452284.0410345,56600.03,-837.6699999999983,2918.790000000001,10561123.0,-0.21698570251464844
1708452284.1748219,56600.03,-837.6699999999983,2918.790000000001,10558255.0,-0.21628379821777344
1708452284.3086092,56600.03,-837.6699999999983,2918.790000000001,10556006.0,-0.21561050415039062
1708452284.4423969,56600.03,-837.6699999999983,2918.790000000001,10553908.0,-0.21514511108398438
1708452284.5761843,56596.05,-837.6699999999983,2918.790000000001,10551138.0,-0.2144622802734375
1708452284.7099717,56596.05,-841.6399999999994,2918.790000000001,10548458.0,-0.2137165069580078
1708452284.8437593,56596.05,-841.6399999999994,2918.790000000001,10546532.0,-0.2132568359375
1708452284.9775467,56596.05,-845.6100000000006,2918.790000000001,10543765.0,-0.21258163452148438
1708452285.111334,56596.05,-845.6100000000006,2918.790000000001,10540825.0,-0.21185874938964844
1708452285.2451217,56596.05,-845.6100000000006,2918.790000000001,10538884.0,-0.2112884521484375
1708452285.378909,56596.05,-845.6100000000006,2918.790000000001,10536449.0,-0.21071624755859375
1708452285.5126965,56596.05,-845.6100000000006,2918.790000000001,10533666.0,-0.21003150939941406
1708452285.6464841,56596.05,-845.6100000000006,2918.790000000001,10531363.0,-0.20935630798339844
1708452285.7802715,56596.05,-849.5800000000017,2918.790000000001,10529208.0,-0.20886993408203125
1708452285.914059,56596.05,-849.5800000000017,2918.790000000001,10526544.0,-0.20820045471191406
1708452286.0478466,56596.05,-849.5800000000017,2918.790000000001,10523671.0,-0.20744895935058594
1708452286.181634,56596.05,-849.5800000000017,2918.790000000001,10521857.0,-0.2069721221923828
1708452286.3154213,56596.05,-849.5800000000017,2918.790000000001,10519292.0,-0.2063426971435547
1708452286.449209,56596.05,-849.5800000000017,2918.790000000001,10516381.0,-0.20560646057128906
1708452286.5829964,56596.05,-853.5499999999993,2918.790000000001,10514455.0,-0.20505905151367188
1708452286.7167838,56596.05,-853.5499999999993,2918.790000000001,10512091.0,-0.204498291015625
1708452286.8505714,56596.05,-853.5499999999993,2918.790000000001,10509262.0,-0.20380592346191406
1708452286.9843588,56596.05,-853.5499999999993,2918.790000000001,10506922.0,-0.20311355590820312
1708452287.1181462,56596.05,-853.5499999999993,2918.790000000001,10504899.0,-0.20266151428222656
1708452287.2519338,56596.05,-857.5200000000004,2918.790000000001,10502262.0,-0.2019977569580078
1708452287.3857212,56596.05,-857.5200000000004,2918.790000000001,10499363.0,-0.20124244689941406
1708452287.5195086,56596.05,-857.5200000000004,2918.790000000001,10497772.0,-0.2007923126220703
1708452287.6532962,56596.05,-857.5200000000004,2918.790000000001,10495137.0,-0.200164794921875
1708452287.7870836,56596.05,-857.5200000000004,2918.790000000001,10492270.0,-0.1994476318359375
1708452287.9208713,56596.05,-857.5200000000004,2918.790000000001,10490380.0,-0.198883056640625
1708452288.0546587,56596.05,-861.4900000000016,2918.790000000001,10488003.0,-0.19835281372070312
1708452288.188446,56596.05,-861.4900000000016,2918.790000000001,10485252.0,-0.19766616821289062
1708452288.3222337,56596.05,-861.4900000000016,2918.790000000001,10482930.0,-0.19698715209960938
1708452288.456021,56596.05,-861.4900000000016,2918.790000000001,10481007.0,-0.19654273986816406
1708452288.5898085,56596.05,-865.4599999999991,2918.790000000001,10478319.0,-0.19587326049804688
1708452288.723596,56596.05,-865.4599999999991,2918.790000000001,10475466.0,-0.19513320922851562
1708452288.8573835,56596.05,-865.4599999999991,2918.790000000001,10473720.0,-0.1946258544921875
1708452288.991171,56596.05,-865.4599999999991,2918.790000000001,10471281.0,-0.19407081604003906
1708452289.1249585,56596.05,-865.4599999999991,2918.790000000001,10468498.0,-0.19338035583496094
1708452289.258746,56596.05,-865.4599999999991,2918.790000000001,10466372.0,-0.1927509307861328
1708452289.3925333,56596.05,-865.4599999999991,2918.790000000001,10464225.0,-0.19227027893066406
1708452289.526321,56596.05,-869.4300000000003,2918.790000000001,10461562.0,-0.1916065216064453
1708452289.6601083,56596.05,-869.4300000000003,2918.790000000001,10458939.0,-0.1908855438232422
1708452289.7938957,56596.05,-869.4300000000003,2918.790000000001,10457216.0,-0.1904315948486328
1708452289.9276834,56596.05,-873.4000000000015,2918.790000000001,10454663.0,-0.18982315063476562
1708452290.0614707,56596.05,-873.4000000000015,2918.790000000001,10451872.0,-0.18912124633789062
1708452290.1952581,56596.05,-873.4000000000015,2918.790000000001,10450103.0,-0.18858718872070312
1708452290.3290458,56596.05,-873.4000000000015,2918.790000000001,10447814.0,-0.18805885314941406
1708452290.4628332,56600.03,-873.4000000000015,2918.790000000001,10445177.0,-0.18740463256835938
1708452290.5966206,56600.03,-873.4000000000015,2918.790000000001,10442821.0,-0.18672752380371094
1708452290.7304082,56600.03,-873.4000000000015,2918.790000000001,10440982.0,-0.18628883361816406
1708452290.8641956,56604.0,-873.4000000000015,2918.790000000001,10438388.0,-0.1856555938720703
1708452290.997983,56607.990000000005,-873.4000000000015,2918.790000000001,10435763.0,-0.18494415283203125
1708452291.1317706,56607.990000000005,-873.4000000000015,2918.790000000001,10434073.0,-0.1844940185546875
1708452291.265558,56611.96000000001,-873.4000000000015,2918.790000000001,10431627.0,-0.18391036987304688
1708452291.3993454,56611.96000000001,-873.4000000000015,2918.790000000001,10428879.0,-0.18321990966796875
1708452291.533133,56611.96000000001,-873.4000000000015,2918.790000000001,10427001.0,-0.18267822265625
1708452291.6669204,56615.92,-873.4000000000015,2918.790000000001,10424829.0,-0.1821746826171875
1708452291.8007078,56615.92,-873.4000000000015,2918.790000000001,10422313.0,-0.18154335021972656
1708452291.9344954,56615.92,-873.4000000000015,2918.790000000001,10419967.0,-0.1808624267578125
1708452292.0682828,56615.92,-873.4000000000015,2918.790000000001,10418149.0,-0.18044090270996094
1708452292.2020702,56615.92,-873.4000000000015,2918.790000000001,10415752.0,-0.17983055114746094
1708452292.3358579,56615.92,-873.4000000000015,2918.790000000001,10412989.0,-0.17911720275878906
1708452292.4696453,56615.92,-873.4000000000015,2918.790000000001,10411366.0,-0.17867279052734375
1708452292.6034327,56615.92,-873.4000000000015,2918.790000000001,10409068.0,-0.1781177520751953
1708452292.7372203,56615.92,-873.4000000000015,2918.790000000001,10406413.0,-0.17745399475097656
1708452292.8710077,56619.91,-873.4000000000015,2918.790000000001,10404507.0,-0.1768646240234375
1708452293.004795,56619.91,-869.4300000000003,2918.790000000001,10402651.0,-0.17645263671875
1708452293.1385827,56619.91,-869.4300000000003,2918.790000000001,10400033.0,-0.17580795288085938
1708452293.27237,56619.91,-869.4300000000003,2918.790000000001,10397500.0,-0.17511367797851562
1708452293.4061575,56619.91,-869.4300000000003,2918.790000000001,10395987.0,-0.17473220825195312
1708452293.5399451,56619.91,-869.4300000000003,2918.790000000001,10393625.0,-0.17414474487304688
1708452293.6737325,56619.91,-869.4300000000003,2918.790000000001,10390799.0,-0.17344284057617188
1708452293.80752,56619.91,-869.4300000000003,2918.790000000001,10389419.0,-0.17299652099609375
1708452293.9413075,56619.91,-869.4300000000003,2918.790000000001,10387066.0,-0.17246055603027344
1708452294.075095,56619.91,-869.4300000000003,2918.790000000001,10384408.0,-0.17181777954101562
1708452294.2088823,56619.91,-869.4300000000003,2918.790000000001,10382576.0,-0.17124366760253906
1708452294.34267,56619.91,-869.4300000000003,2918.790000000001,10380678.0,-0.17081832885742188
1708452294.4764574,56619.91,-869.4300000000003,2918.790000000001,10378190.0,-0.17020797729492188
1708452294.6102448,56619.91,-865.4599999999991,2918.790000000001,10375830.0,-0.16953086853027344
1708452294.7440324,56619.91,-865.4599999999991,2918.790000000001,10374179.0,-0.1691455841064453
1708452294.8778198,56619.91,-865.4599999999991,2914.8300000000017,10372013.0,-0.16858291625976562
1708452295.0116072,56619.91,-865.4599999999991,2914.8300000000017,10369369.0,-0.16790771484375
1708452295.1453948,56619.91,-865.4599999999991,2914.8300000000017,10367840.0,-0.1674652099609375
1708452295.2791822,56619.91,-865.4599999999991,2914.8300000000017,10365653.0,-0.1669635772705078
1708452295.4129696,56619.91,-865.4599999999991,2910.8799999999974,10363302.0,-0.16637229919433594
1708452295.5467572,56619.91,-865.4599999999991,2910.8799999999974,10361305.0,-0.1657543182373047
1708452295.6805446,56619.91,-865.4599999999991,2910.8799999999974,10359457.0,-0.1653575897216797
1708452295.814332,56619.91,-865.4599999999991,2910.8799999999974,10357082.0,-0.164764404296875
1708452295.9481196,56619.91,-865.4599999999991,2906.9199999999983,10354715.0,-0.16410446166992188
1708452296.081907,56619.91,-865.4599999999991,2906.9199999999983,10353206.0,-0.16373062133789062
1708452296.2156944,56619.91,-865.4599999999991,2902.970000000001,10351041.0,-0.16318702697753906
