,x,y,z,temp,temp_error
1708451573.1420984,-14969.849999999999,5558.0,2396.730000000003,11035398.0,0.0
1708451573.2778854,-15939.75,5704.889999999999,2325.540000000001,11024255.0,-0.3382987976074219
1708451573.4136724,-16925.55,5827.959999999999,2250.3899999999994,11013426.0,-0.33614158630371094
1708451573.5494595,-17927.25,5927.209999999999,2167.3399999999965,11002778.0,-0.3338603973388672
1708451573.6852467,-18944.85,5998.669999999998,2080.3300000000017,10993834.0,-0.3319053649902344
1708451573.8210337,-19978.35,6042.3399999999965,1993.3199999999997,10984627.0,-0.32981300354003906
1708451573.9568207,-21027.75,6066.1600000000035,1906.3099999999977,10975341.0,-0.3276538848876953
1708451574.0926077,-22093.05,6066.1600000000035,1823.25,10967590.0,-0.3256492614746094
1708451574.2283947,-23174.25,6042.3399999999965,1744.1600000000035,10959934.0,-0.32378196716308594
1708451574.3641818,-24271.35,5998.669999999998,1669.010000000002,10952284.0,-0.32183074951171875
1708451574.4999688,-25384.35,5935.1500000000015,1597.8199999999997,10944672.0,-0.31976318359375
1708451574.6357558,-26509.28,5851.779999999999,1534.5400000000009,10938452.0,-0.31812286376953125
1708451574.771543,-27650.1,5748.559999999998,1479.1699999999983,10931855.0,-0.31635093688964844
1708451574.90733,-28802.85,5633.43,1431.7099999999991,10924958.0,-0.3144512176513672
1708451575.043117,-29971.5,5498.449999999997,1396.1100000000006,10919620.0,-0.31286048889160156
1708451575.178904,-31152.08,5351.559999999998,1368.4300000000003,10914237.0,-0.31136512756347656
1708451575.314691,-32340.6,5192.760000000002,1352.6100000000006,10908143.0,-0.3096923828125
1708451575.450478,-33537.08,5022.050000000003,1348.6600000000035,10902894.0,-0.3080291748046875
1708451575.586265,-34741.5,4839.43,1356.5699999999997,10898672.0,-0.3068122863769531
1708451575.722052,-35949.9,4648.870000000003,1372.3899999999994,10893653.0,-0.30536842346191406
1708451575.8578393,-37162.28,4454.3399999999965,1400.0699999999997,10888540.0,-0.3038158416748047
1708451575.9936264,-38374.65,4247.9000000000015,1439.6200000000026,10885145.0,-0.3026695251464844
1708451576.1294134,-39587.03,4033.519999999997,1491.0299999999988,10881107.0,-0.3015155792236328
1708451576.2652004,-40791.45,3815.1699999999983,1550.3600000000006,10876645.0,-0.3001995086669922
1708451576.4009874,-41987.93,3592.8499999999985,1617.5899999999965,10873381.0,-0.29900550842285156
1708451576.5367744,-43172.479999999996,3366.5599999999977,1696.6900000000023,10870658.0,-0.2981605529785156
1708451576.6725614,-44341.12,3136.300000000003,1783.699999999997,10867125.0,-0.2970600128173828
1708451576.8083484,-45489.9,2902.0699999999997,1878.6200000000026,10864069.0,-0.29596710205078125
1708451576.9441357,-46614.83,2667.8399999999965,1977.5,10862712.0,-0.29532432556152344
1708451577.0799227,-47711.93,2429.6399999999994,2084.279999999999,10860446.0,-0.2945556640625
1708451577.2157097,-48777.229999999996,2187.470000000001,2195.019999999997,10858359.0,-0.29373931884765625
1708451577.3514967,-49810.729999999996,1949.2699999999968,2309.720000000001,10857800.0,-0.29314231872558594
1708451577.4872837,-50804.479999999996,1711.0699999999997,2428.3700000000026,10857284.0,-0.29280662536621094
1708451577.6230707,-51758.479999999996,1472.8700000000026,2547.019999999997,10856555.0,-0.2923011779785156
1708451577.7588577,-52664.78,1238.6399999999994,2669.6200000000026,10856024.0,-0.29180908203125
1708451577.8946447,-53527.36,1008.3799999999974,2788.269999999997,10857036.0,-0.2917327880859375
1708451578.030432,-54342.229999999996,782.0899999999965,2906.9199999999983,10856997.0,-0.29149627685546875
1708451578.166219,-55105.43,563.739999999998,3021.6200000000026,10856630.0,-0.29117584228515625
1708451578.302006,-55816.95,349.3600000000006,3132.3600000000006,10856891.0,-0.29097747802734375
1708451578.437793,-56476.8,142.91999999999825,3235.1900000000023,10857072.0,-0.2909202575683594
1708451578.57358,-57088.95,-51.61000000000058,3334.0699999999997,10856333.0,-0.2906341552734375
1708451578.709367,-57649.43,-238.20000000000073,3425.029999999999,10855280.0,-0.2902965545654297
1708451578.845154,-58166.18,-412.880000000001,3508.0800000000017,10855033.0,-0.29019737243652344
1708451578.980941,-58635.229999999996,-579.619999999999,3587.1800000000003,10853526.0,-0.2898597717285156
1708451579.1167283,-59060.56,-734.4500000000007,3658.3700000000026,10851824.0,-0.28948974609375
1708451579.2525153,-59446.130000000005,-881.3400000000001,3721.6600000000035,10850460.0,-0.2891349792480469
1708451579.3883023,-59795.93,-1016.3199999999997,3780.980000000003,10848618.0,-0.2888011932373047
1708451579.5240893,-60109.95,-1139.3899999999994,3832.3899999999994,10846422.0,-0.28833961486816406
1708451579.6598763,-60392.18,-1254.5200000000004,3879.8499999999985,10844296.0,-0.28784942626953125
1708451579.7956634,-60646.58,-1361.7099999999991,3919.4100000000035,10842486.0,-0.2874889373779297
1708451579.9314504,-60873.16,-1456.9900000000016,3955.0,10840199.0,-0.28697776794433594
1708451580.0672374,-61075.880000000005,-1544.3300000000017,3986.6399999999994,10837887.0,-0.28649139404296875
1708451580.2030246,-61254.75,-1623.7299999999996,4014.3199999999997,10835936.0,-0.2860069274902344
1708451580.3388116,-61413.75,-1695.1899999999987,4038.050000000003,10833730.0,-0.2855358123779297
1708451580.4745986,-61552.880000000005,-1762.6800000000003,4057.8300000000017,10831687.0,-0.2850513458251953
1708451580.6103857,-61676.1,-1822.2299999999996,4077.5999999999985,10829378.0,-0.28449058532714844
1708451580.7461727,-61787.4,-1873.8400000000001,4093.4199999999983,10827444.0,-0.2840595245361328
1708451580.8819597,-61886.78,-1921.4799999999996,4105.290000000001,10825262.0,-0.28350830078125
1708451581.0177467,-61974.229999999996,-1965.1500000000015,4117.1600000000035,10822950.0,-0.2829933166503906
1708451581.1535337,-62049.75,-2004.8499999999985,4129.019999999997,10821083.0,-0.28249359130859375
1708451581.289321,-62113.36,-2040.5800000000017,4136.93,10818925.0,-0.281982421875
1708451581.425108,-62169.0,-2068.369999999999,4144.8399999999965,10816908.0,-0.28148841857910156
1708451581.560895,-62220.68,-2096.16,4152.75,10814720.0,-0.28092193603515625
1708451581.696682,-62264.4,-2119.9799999999996,4156.699999999997,10812670.0,-0.2804546356201172
1708451581.832469,-62304.16,-2139.8300000000017,4160.6600000000035,10810552.0,-0.27990150451660156
1708451581.968256,-62335.95,-2155.709999999999,4164.620000000003,10808258.0,-0.27936363220214844
1708451582.104043,-62363.78,-2171.59,4168.57,10806458.0,-0.27887725830078125
1708451582.23983,-62387.630000000005,-2183.5,4168.57,10804049.0,-0.2783069610595703
1708451582.3756173,-62407.5,-2195.41,4168.57,10802040.0,-0.2778129577636719
1708451582.5114043,-62427.380000000005,-2211.290000000001,4168.57,10799941.0,-0.27724647521972656
1708451582.6471913,-62443.28,-2223.2000000000007,4168.57,10797752.0,-0.2767505645751953
1708451582.7829783,-62455.2,-2231.1399999999994,4168.57,10795582.0,-0.2761821746826172
1708451582.9187653,-62467.130000000005,-2239.0800000000017,4168.57,10793333.0,-0.2756366729736328
1708451583.0545523,-62475.08,-2247.0200000000004,4168.57,10791210.0,-0.2751140594482422
1708451583.1903393,-62483.03,-2250.9900000000016,4168.57,10788901.0,-0.27454185485839844
1708451583.3261263,-62490.979999999996,-2258.9300000000003,4168.57,10786759.0,-0.27401161193847656
1708451583.4619136,-62494.95,-2262.9000000000015,4168.57,10784389.0,-0.2734031677246094
1708451583.5977006,-62498.93,-2266.869999999999,4168.57,10782110.0,-0.2728729248046875
1708451583.7334876,-62502.9,-2270.84,4168.57,10779936.0,-0.27230072021484375
1708451583.8692746,-62506.880000000005,-2270.84,4164.620000000003,10777399.0,-0.2717018127441406
1708451584.0050616,-62510.85,-2274.8100000000013,4164.620000000003,10775309.0,-0.2711811065673828
1708451584.1408486,-62510.85,-2274.8100000000013,4160.6600000000035,10772912.0,-0.27055931091308594
1708451584.2766356,-62510.85,-2274.8100000000013,4160.6600000000035,10770640.0,-0.27001953125
1708451584.4124227,-62510.85,-2274.8100000000013,4156.699999999997,10768285.0,-0.2694110870361328
1708451584.54821,-62510.85,-2278.779999999999,4156.699999999997,10765752.0,-0.2688159942626953
1708451584.683997,-62510.85,-2278.779999999999,4152.75,10763383.0,-0.2682170867919922
1708451584.819784,-62510.85,-2278.779999999999,4152.75,10760826.0,-0.2675933837890625
1708451584.955571,-62510.85,-2278.779999999999,4148.800000000003,10758568.0,-0.2670421600341797
1708451585.091358,-62510.85,-2278.779999999999,4148.800000000003,10755941.0,-0.2663764953613281
1708451585.227145,-62510.85,-2278.779999999999,4144.8399999999965,10753416.0,-0.26578712463378906
1708451585.362932,-62510.85,-2278.779999999999,4144.8399999999965,10751178.0,-0.2651805877685547
1708451585.498719,-62510.85,-2278.779999999999,4140.889999999999,10748410.0,-0.26453208923339844
1708451585.6345062,-62510.85,-2278.779999999999,4140.889999999999,10746239.0,-0.2639636993408203
1708451585.7702932,-62510.85,-2278.779999999999,4136.93,10743469.0,-0.26328277587890625
1708451585.9060802,-62506.880000000005,-2278.779999999999,4132.980000000003,10741094.0,-0.2627067565917969
1708451586.0418673,-62502.9,-2278.779999999999,4132.980000000003,10738602.0,-0.26206016540527344
1708451586.1776543,-62502.9,-2278.779999999999,4132.980000000003,10735846.0,-0.26140785217285156
1708451586.3134413,-62498.93,-2278.779999999999,4129.019999999997,10733359.0,-0.26078033447265625
1708451586.4492283,-62494.95,-2278.779999999999,4129.019999999997,10730750.0,-0.26012229919433594
1708451586.5850153,-62490.979999999996,-2278.779999999999,4129.019999999997,10728289.0,-0.2595233917236328
1708451586.7208025,-62487.0,-2278.779999999999,4125.07,10725677.0,-0.2588310241699219
1708451586.8565896,-62487.0,-2278.779999999999,4121.110000000001,10723158.0,-0.25823402404785156
1708451586.9923766,-62483.03,-2278.779999999999,4121.110000000001,10720566.0,-0.257568359375
1708451587.1281636,-62483.03,-2274.8100000000013,4117.1600000000035,10717799.0,-0.25688934326171875
1708451587.2639506,-62483.03,-2274.8100000000013,4113.199999999997,10715433.0,-0.2562885284423828
1708451587.3997376,-62483.03,-2274.8100000000013,4113.199999999997,10712687.0,-0.25559234619140625
1708451587.5355246,-62483.03,-2274.8100000000013,4109.25,10710065.0,-0.2549705505371094
1708451587.6713116,-62479.05,-2274.8100000000013,4109.25,10707588.0,-0.25429725646972656
1708451587.8070989,-62479.05,-2274.8100000000013,4105.290000000001,10704779.0,-0.25363731384277344
1708451587.9428859,-62475.08,-2274.8100000000013,4101.330000000002,10702178.0,-0.2529716491699219
1708451588.078673,-62475.08,-2274.8100000000013,4101.330000000002,10699364.0,-0.2522697448730469
1708451588.21446,-62475.08,-2274.8100000000013,4101.330000000002,10696823.0,-0.25164794921875
1708451588.350247,-62471.1,-2274.8100000000013,4101.330000000002,10694110.0,-0.2509346008300781
1708451588.486034,-62471.1,-2274.8100000000013,4097.379999999997,10691567.0,-0.25031471252441406
1708451588.621821,-62471.1,-2274.8100000000013,4097.379999999997,10688926.0,-0.2496204376220703
1708451588.757608,-62471.1,-2270.84,4093.4199999999983,10686139.0,-0.24894332885742188
1708451588.8933952,-62471.1,-2270.84,4093.4199999999983,10683632.0,-0.24830055236816406
1708451589.0291822,-62467.130000000005,-2270.84,4089.470000000001,10680745.0,-0.2475757598876953
1708451589.1649692,-62463.16,-2270.84,4089.470000000001,10678161.0,-0.2469482421875
1708451589.3007562,-62463.16,-2270.84,4089.470000000001,10675471.0,-0.2462291717529297
1708451589.4365432,-62463.16,-2270.84,4089.470000000001,10672691.0,-0.245574951171875
1708451589.5723302,-62459.18,-2266.869999999999,4085.510000000002,10670078.0,-0.24488258361816406
1708451589.7081172,-62459.18,-2266.869999999999,4085.510000000002,10667270.0,-0.2441883087158203
1708451589.8439043,-62459.18,-2266.869999999999,4081.5599999999977,10664716.0,-0.24353981018066406
1708451589.9796915,-62455.2,-2266.869999999999,4081.5599999999977,10661958.0,-0.24282264709472656
1708451590.1154785,-62451.229999999996,-2266.869999999999,4077.5999999999985,10659404.0,-0.24219894409179688
1708451590.2512655,-62451.229999999996,-2266.869999999999,4077.5999999999985,10656728.0,-0.2414836883544922
1708451590.3870525,-62447.25,-2266.869999999999,4077.5999999999985,10653932.0,-0.24082183837890625
1708451590.5228395,-62443.28,-2266.869999999999,4077.5999999999985,10651390.0,-0.2401409149169922
1708451590.6586266,-62443.28,-2266.869999999999,4077.5999999999985,10648489.0,-0.2394256591796875
1708451590.7944136,-62439.31,-2266.869999999999,4073.6500000000015,10645951.0,-0.23878860473632812
1708451590.9302006,-62439.31,-2266.869999999999,4073.6500000000015,10643156.0,-0.23805618286132812
1708451591.0659878,-62435.33,-2266.869999999999,4069.6900000000023,10640463.0,-0.23740768432617188
1708451591.2017748,-62435.33,-2266.869999999999,4069.6900000000023,10637873.0,-0.23670196533203125
1708451591.3375618,-62431.36,-2266.869999999999,4069.6900000000023,10635093.0,-0.2360382080078125
1708451591.4733489,-62431.36,-2266.869999999999,4069.6900000000023,10632514.0,-0.23536300659179688
1708451591.6091359,-62427.380000000005,-2266.869999999999,4065.739999999998,10629720.0,-0.2346477508544922
1708451591.7449229,-62427.380000000005,-2266.869999999999,4065.739999999998,10627071.0,-0.23400115966796875
1708451591.88071,-62423.4,-2266.869999999999,4065.739999999998,10624347.0,-0.23327255249023438
1708451592.016497,-62423.4,-2266.869999999999,4065.739999999998,10621658.0,-0.23262596130371094
1708451592.1522841,-62419.43,-2266.869999999999,4061.779999999999,10619032.0,-0.2319316864013672
1708451592.2880712,-62415.45,-2266.869999999999,4061.779999999999,10616225.0,-0.23123550415039062
1708451592.4238582,-62415.45,-2266.869999999999,4057.8300000000017,10613781.0,-0.23060035705566406
1708451592.5596452,-62411.479999999996,-2266.869999999999,4057.8300000000017,10611030.0,-0.22987937927246094
1708451592.6954322,-62411.479999999996,-2266.869999999999,4057.8300000000017,10608367.0,-0.22922897338867188
1708451592.8312192,-62411.479999999996,-2266.869999999999,4057.8300000000017,10605870.0,-0.228546142578125
1708451592.9670062,-62411.479999999996,-2266.869999999999,4053.8700000000026,10603019.0,-0.2278614044189453
1708451593.1027932,-62411.479999999996,-2266.869999999999,4053.8700000000026,10600495.0,-0.2272052764892578
1708451593.2385805,-62407.5,-2266.869999999999,4053.8700000000026,10597643.0,-0.22647857666015625
1708451593.3743675,-62403.53,-2266.869999999999,4049.9199999999983,10595074.0,-0.22585296630859375
1708451593.5101545,-62403.53,-2266.869999999999,4049.9199999999983,10592336.0,-0.225128173828125
1708451593.6459415,-62403.53,-2266.869999999999,4049.9199999999983,10589779.0,-0.2244853973388672
1708451593.7817285,-62399.56,-2266.869999999999,4049.9199999999983,10587136.0,-0.2238006591796875
1708451593.9175155,-62399.56,-2266.869999999999,4045.959999999999,10584376.0,-0.22310638427734375
1708451594.0533025,-62395.58,-2266.869999999999,4045.959999999999,10582021.0,-0.2224864959716797
1708451594.1890895,-62395.58,-2266.869999999999,4045.959999999999,10579219.0,-0.22175979614257812
1708451594.3248768,-62391.6,-2266.869999999999,4042.010000000002,10576561.0,-0.22112655639648438
1708451594.4606638,-62391.6,-2270.84,4042.010000000002,10574178.0,-0.22044944763183594
1708451594.5964508,-62387.630000000005,-2270.84,4042.010000000002,10571380.0,-0.21977806091308594
1708451594.7322378,-62383.65,-2270.84,4042.010000000002,10568995.0,-0.2191448211669922
1708451594.8680248,-62379.68,-2270.84,4042.010000000002,10566259.0,-0.2184429168701172
1708451595.0038118,-62379.68,-2270.84,4042.010000000002,10563718.0,-0.2178173065185547
1708451595.1395988,-62375.7,-2270.84,4038.050000000003,10560950.0,-0.21709251403808594
1708451595.2753859,-62375.7,-2270.84,4038.050000000003,10558566.0,-0.2164936065673828
1708451595.411173,-62371.729999999996,-2270.84,4038.050000000003,10556070.0,-0.21582984924316406
1708451595.54696,-62371.729999999996,-2270.84,4038.050000000003,10553284.0,-0.21513938903808594
1708451595.6827471,-62371.729999999996,-2274.8100000000013,4034.0999999999985,10550957.0,-0.21453094482421875
1708451595.8185341,-62367.75,-2274.8100000000013,4034.0999999999985,10548196.0,-0.2138233184814453
1708451595.9543211,-62367.75,-2274.8100000000013,4034.0999999999985,10545690.0,-0.2132129669189453
1708451596.0901082,-62367.75,-2274.8100000000013,4034.0999999999985,10543085.0,-0.2125091552734375
1708451596.2258952,-62363.78,-2274.8100000000013,4030.1399999999994,10540463.0,-0.2118701934814453
1708451596.3616822,-62363.78,-2274.8100000000013,4030.1399999999994,10538132.0,-0.21125030517578125
1708451596.4974694,-62363.78,-2274.8100000000013,4030.1399999999994,10535466.0,-0.2105541229248047
1708451596.6332564,-62363.78,-2274.8100000000013,4030.1399999999994,10533006.0,-0.20995521545410156
1708451596.7690434,-62363.78,-2274.8100000000013,4030.1399999999994,10530454.0,-0.20927047729492188
1708451596.9048305,-62363.78,-2274.8100000000013,4026.1900000000023,10527838.0,-0.208648681640625
1708451597.0406175,-62363.78,-2274.8100000000013,4026.1900000000023,10525381.0,-0.20797348022460938
1708451597.1764045,-62363.78,-2274.8100000000013,4026.1900000000023,10522755.0,-0.20733261108398438
1708451597.3121915,-62363.78,-2278.779999999999,4026.1900000000023,10520478.0,-0.2067241668701172
1708451597.4479785,-62359.81,-2278.779999999999,4022.230000000003,10517743.0,-0.20601654052734375
1708451597.5837657,-62359.81,-2278.779999999999,4022.230000000003,10515466.0,-0.20545196533203125
1708451597.7195528,-62355.83,-2282.75,4022.230000000003,10512852.0,-0.2047595977783203
1708451597.8553398,-62355.83,-2282.75,4022.230000000003,10510305.0,-0.20414352416992188
1708451597.9911268,-62355.83,-2286.720000000001,4022.230000000003,10508053.0,-0.20351791381835938
1708451598.1269138,-62351.85,-2286.720000000001,4022.230000000003,10505348.0,-0.2028522491455078
1708451598.2627008,-62351.85,-2286.720000000001,4018.279999999999,10503146.0,-0.20227432250976562
1708451598.3984878,-62351.85,-2286.720000000001,4018.279999999999,10500668.0,-0.20160293579101562
1708451598.5342748,-62347.880000000005,-2286.720000000001,4018.279999999999,10498085.0,-0.20099830627441406
1708451598.670062,-62347.880000000005,-2286.720000000001,4018.279999999999,10495662.0,-0.20034408569335938
1708451598.805849,-62347.880000000005,-2286.720000000001,4018.279999999999,10493131.0,-0.1997222900390625
1708451598.941636,-62347.880000000005,-2286.720000000001,4014.3199999999997,10490735.0,-0.1990966796875
1708451599.077423,-62347.880000000005,-2286.720000000001,4014.3199999999997,10488104.0,-0.19842910766601562
1708451599.21321,-62347.880000000005,-2286.720000000001,4014.3199999999997,10485811.0,-0.19785690307617188
1708451599.348997,-62347.880000000005,-2290.6899999999987,4014.3199999999997,10483433.0,-0.1972026824951172
1708451599.4847841,-62343.9,-2290.6899999999987,4010.3700000000026,10481011.0,-0.19661521911621094
1708451599.6205711,-62343.9,-2290.6899999999987,4010.3700000000026,10478780.0,-0.1959991455078125
1708451599.7563584,-62343.9,-2290.6899999999987,4010.3700000000026,10476087.0,-0.19535064697265625
1708451599.8921454,-62343.9,-2290.6899999999987,4010.3700000000026,10473873.0,-0.19476699829101562
1708451600.0279324,-62343.9,-2290.6899999999987,4010.3700000000026,10471396.0,-0.19411468505859375
1708451600.1637194,-62343.9,-2290.6899999999987,4006.4100000000035,10469022.0,-0.1935405731201172
1708451600.2995064,-62343.9,-2290.6899999999987,4006.4100000000035,10466649.0,-0.19289398193359375
1708451600.4352934,-62339.93,-2290.6899999999987,4006.4100000000035,10464314.0,-0.19231414794921875
1708451600.5710804,-62339.93,-2290.6899999999987,4006.4100000000035,10462171.0,-0.19173049926757812
1708451600.7068675,-62339.93,-2290.6899999999987,4006.4100000000035,10459397.0,-0.1910686492919922
1708451600.8426547,-62339.93,-2290.6899999999987,4006.4100000000035,10457289.0,-0.1905078887939453
1708451600.9784417,-62339.93,-2290.6899999999987,4002.459999999999,10454829.0,-0.18986129760742188
