,x,y,z,temp,temp_error
1717175998.5445685,-6547.220000000001,7088.489999999998,16613.480000000003,8756492.0,-0.09095382690429688
1717175998.6807132,-6941.09,7546.050000000003,17571.949999999997,8764537.0,-0.09290695190429688
1717175998.8168576,-7348.779999999999,8018.370000000003,18537.85,8771257.0,-0.09448623657226562
1717175998.9530022,-7770.290000000001,8498.07,19514.9,8777042.0,-0.09581375122070312
1717175999.0891469,-8205.619999999999,8988.839999999997,20495.660000000003,8781688.0,-0.0968475341796875
1717175999.2252915,-8654.77,9490.68,21483.839999999997,8785373.0,-0.0976104736328125
1717175999.361436,-9117.75,9999.900000000001,22479.46,8788031.0,-0.09812355041503906
1717175999.4975805,-9597.990000000002,10512.809999999998,23482.510000000002,8790483.0,-0.09854507446289062
1717175999.6337252,-10092.05,11029.410000000003,24493.0,8792476.0,-0.09883308410644531
1717175999.7698698,-10603.39,11549.699999999997,25510.910000000003,8793599.0,-0.09887886047363281
1717175999.9060142,-11128.55,12069.989999999998,26532.53,8794548.0,-0.09886741638183594
1717176000.0421588,-11664.080000000002,12582.900000000001,27561.58,8795314.0,-0.09877967834472656
1717176000.1783035,-12213.419999999998,13092.120000000003,28598.07,8796512.0,-0.09881401062011719
1717176000.314448,-12773.14,13590.269999999997,29638.269999999997,8797905.0,-0.0988616943359375
1717176000.4505925,-13343.21,14073.660000000003,30682.190000000002,8799339.0,-0.09893989562988281
1717176000.5867372,-13920.189999999999,14545.980000000003,31733.53,8801182.0,-0.09911155700683594
1717176000.7228818,-14504.09,14996.160000000003,32788.600000000006,8803895.0,-0.09949302673339844
1717176000.8590264,-15087.98,15427.89,33847.369999999995,8807196.0,-0.10001754760742188
1717176000.9951708,-15671.880000000001,15833.79,34909.86,8811997.0,-0.10087966918945312
1717176001.1313155,-16252.32,16213.86,35972.350000000006,8817467.0,-0.1019744873046875
1717176001.26746,-16822.4,16568.1,37038.56,8823956.0,-0.10330390930175781
1717176001.4036047,-17382.11,16896.510000000002,38104.759999999995,8831912.0,-0.10499763488769531
1717176001.5397491,-17928.0,17195.4,39167.25,8841201.0,-0.10703468322753906
1717176001.6758938,-18453.16,17472.15,40226.03,8851626.0,-0.10934257507324219
1717176001.8120384,-18957.58,17723.07,41277.369999999995,8863642.0,-0.11201286315917969
1717176001.948183,-19437.83,17955.54,42317.57000000001,8876911.0,-0.11501312255859375
1717176002.0843275,-19890.440000000002,18165.870000000003,43342.91,8891277.0,-0.11831474304199219
1717176002.220472,-20311.95,18357.75,44349.67,8906323.0,-0.12171745300292969
1717176002.3566167,-20705.82,18538.559999999998,45330.44,8921605.0,-0.12514114379882812
1717176002.4927614,-21065.14,18711.989999999998,46281.47,8936768.0,-0.1285228729248047
1717176002.6289058,-21393.36,18874.35,47199.08,8951101.0,-0.13162994384765625
1717176002.7650504,-21690.489999999998,19036.71,48075.82000000001,8964789.0,-0.13453102111816406
1717176002.901195,-21956.53,19191.690000000002,48904.270000000004,8976964.0,-0.13702774047851562
1717176003.0373397,-22191.46,19350.36,49680.71000000001,8987153.0,-0.13895797729492188
1717176003.173484,-22398.77,19509.03,50401.41,8995037.0,-0.1402587890625
1717176003.3096287,-22578.43,19664.010000000002,51066.39,9000505.0,-0.14093780517578125
1717176003.4457734,-22733.9,19815.300000000003,51675.66,9003462.0,-0.14092636108398438
1717176003.581918,-22865.190000000002,19962.9,52225.47,9004123.0,-0.14032745361328125
1717176003.7180624,-22975.75,20106.809999999998,52715.850000000006,9002459.0,-0.13912010192871094
1717176003.854207,-23069.04,20243.339999999997,53157.94,8998908.0,-0.13741493225097656
1717176003.9903517,-23145.05,20376.18,53548.020000000004,8993815.0,-0.13531494140625
1717176004.1264963,-23207.239999999998,20497.949999999997,53889.8,8987304.0,-0.1328582763671875
1717176004.2626407,-23259.059999999998,20608.65,54190.71000000001,8979623.0,-0.1300830841064453
1717176004.3987854,-23297.059999999998,20715.660000000003,54450.759999999995,8971268.0,-0.12713623046875
1717176004.53493,-23328.16,20811.6,54673.66,8962315.0,-0.12404060363769531
1717176004.6710746,-23348.89,20900.160000000003,54863.130000000005,8952960.0,-0.12085151672363281
1717176004.807219,-23362.71,20977.65,55030.3,8943461.0,-0.11762237548828125
1717176004.9433637,-23373.08,21047.760000000002,55171.47,8933659.0,-0.11433219909667969
1717176005.0795083,-23379.98,21106.800000000003,55290.350000000006,8923846.0,-0.11104393005371094
1717176005.215653,-23379.98,21162.15,55390.66,8914131.0,-0.1077880859375
1717176005.3517973,-23379.98,21210.120000000003,55476.100000000006,8904593.0,-0.10458564758300781
1717176005.487942,-23379.98,21254.4,55542.97,8895138.0,-0.10141754150390625
1717176005.6240866,-23376.53,21294.989999999998,55598.69,8885959.0,-0.09832191467285156
1717176005.7602313,-23373.08,21324.510000000002,55646.990000000005,8877097.0,-0.09531974792480469
1717176005.8963757,-23369.620000000003,21350.339999999997,55687.850000000006,8868454.0,-0.09237480163574219
1717176006.0325203,-23362.71,21372.480000000003,55721.28,8859797.0,-0.08943557739257812
1717176006.168665,-23355.8,21398.309999999998,55747.28999999999,8851465.0,-0.08658027648925781
1717176006.3048096,-23348.89,21416.760000000002,55765.869999999995,8843382.0,-0.08381080627441406
1717176006.440954,-23341.98,21435.21,55780.729999999996,8835468.0,-0.08109283447265625
1717176006.5770986,-23335.07,21449.97,55791.880000000005,8827885.0,-0.07845306396484375
1717176006.7132432,-23328.16,21461.04,55803.020000000004,8820301.0,-0.07583045959472656
1717176006.849388,-23321.25,21472.11,55810.45,8812753.0,-0.07324028015136719
1717176006.9855323,-23314.34,21483.18,55814.17,8805376.0,-0.07070732116699219
1717176007.121677,-23307.43,21490.559999999998,55817.880000000005,8798019.0,-0.06820106506347656
1717176007.2578216,-23300.52,21494.25,55817.880000000005,8790652.0,-0.06571197509765625
1717176007.3939662,-23297.059999999998,21501.629999999997,55821.600000000006,8783329.0,-0.06325340270996094
1717176007.5301106,-23293.61,21505.32,55825.32000000001,8775888.0,-0.06077766418457031
1717176007.6662552,-23290.16,21509.010000000002,55825.32000000001,8768512.0,-0.058338165283203125
1717176007.8023999,-23283.239999999998,21512.699999999997,55825.32000000001,8761201.0,-0.055942535400390625
1717176007.9385445,-23276.34,21516.39,55825.32000000001,8754070.0,-0.05359840393066406
1717176008.074689,-23272.879999999997,21516.39,55825.32000000001,8747068.0,-0.05130577087402344
1717176008.2108335,-23265.97,21516.39,55825.32000000001,8740240.0,-0.049072265625
1717176008.3469782,-23262.52,21516.39,55829.03,8733603.0,-0.046901702880859375
1717176008.4831228,-23259.059999999998,21516.39,55829.03,8727171.0,-0.04480171203613281
1717176008.6192672,-23255.61,21512.699999999997,55832.740000000005,8721129.0,-0.042816162109375
1717176008.7554119,-23252.15,21512.699999999997,55836.46000000001,8715328.0,-0.040912628173828125
1717176008.8915565,-23248.7,21516.39,55836.46000000001,8709842.0,-0.03911399841308594
1717176009.0277011,-23241.79,21520.08,55836.46000000001,8704774.0,-0.03743553161621094
1717176009.1638455,-23234.879999999997,21520.08,55836.46000000001,8700078.0,-0.035861968994140625
1717176009.2999902,-23227.96,21523.769999999997,55836.46000000001,8695877.0,-0.03443717956542969
1717176009.4361348,-23221.059999999998,21523.769999999997,55840.17,8692044.0,-0.03310966491699219
1717176009.5722795,-23214.14,21531.15,55843.89,8688630.0,-0.03190040588378906
1717176009.7084239,-23210.690000000002,21534.839999999997,55843.89,8685916.0,-0.030874252319335938
1717176009.8445685,-23203.78,21538.53,55843.89,8683840.0,-0.030010223388671875
1717176009.9807131,-23196.870000000003,21542.22,55843.89,8682480.0,-0.029333114624023438
1717176010.1168578,-23189.96,21549.6,55840.17,8681728.0,-0.02880859375
1717176010.2530022,-23183.05,21553.29,55840.17,8681529.0,-0.028430938720703125
1717176010.3891468,-23179.6,21556.980000000003,55840.17,8681889.0,-0.028202056884765625
1717176010.5252914,-23172.690000000002,21564.36,55840.17,8682810.0,-0.028118133544921875
1717176010.6614358,-23169.23,21571.739999999998,55836.46000000001,8684133.0,-0.028135299682617188
1717176010.7975805,-23165.78,21575.43,55832.740000000005,8685964.0,-0.028291702270507812
1717176010.933725,-23158.870000000003,21586.5,55829.03,8688172.0,-0.028539657592773438
1717176011.0698698,-23151.96,21593.879999999997,55825.32000000001,8690903.0,-0.028913497924804688
1717176011.2060142,-23145.05,21597.57,55821.600000000006,8693943.0,-0.029369354248046875
1717176011.3421588,-23138.14,21604.949999999997,55817.880000000005,8697054.0,-0.029832839965820312
1717176011.4783034,-23131.22,21612.33,55814.17,8700449.0,-0.030359268188476562
1717176011.614448,-23127.77,21616.019999999997,55810.45,8703825.0,-0.03087615966796875
1717176011.7505925,-23120.86,21623.4,55806.740000000005,8707166.0,-0.03137016296386719
1717176011.886737,-23117.4,21630.78,55799.3,8710487.0,-0.03184700012207031
1717176012.0228817,-23110.5,21638.160000000003,55791.880000000005,8713545.0,-0.03226280212402344
1717176012.1590264,-23103.59,21645.54,55788.16,8716494.0,-0.03263282775878906
1717176012.2951708,-23096.68,21652.92,55780.729999999996,8719185.0,-0.03292655944824219
1717176012.4313154,-23089.77,21652.92,55777.020000000004,8721796.0,-0.033206939697265625
1717176012.56746,-23082.86,21660.300000000003,55773.3,8724029.0,-0.033390045166015625
1717176012.7036047,-23075.95,21667.68,55769.58,8725938.0,-0.03348350524902344
1717176012.839749,-23069.04,21671.370000000003,55765.869999999995,8727568.0,-0.03350257873535156
1717176012.9758937,-23062.129999999997,21675.059999999998,55762.16,8728758.0,-0.03341102600097656
1717176013.1120384,-23055.22,21682.440000000002,55758.44,8729478.0,-0.03320503234863281
1717176013.248183,-23048.3,21686.129999999997,55751.009999999995,8729957.0,-0.03293418884277344
1717176013.3843274,-23041.4,21686.129999999997,55747.28999999999,8730076.0,-0.032573699951171875
1717176013.520472,-23034.48,21689.82,55743.58,8729777.0,-0.032100677490234375
1717176013.6566167,-23027.58,21689.82,55739.86,8729005.0,-0.0315093994140625
1717176013.7927613,-23020.67,21697.199999999997,55736.149999999994,8727996.0,-0.030858993530273438
1717176013.9289057,-23013.760000000002,21700.89,55732.44,8726850.0,-0.030179977416992188
1717176014.0650504,-23006.85,21704.58,55728.72,8725282.0,-0.02939605712890625
1717176014.201195,-23003.39,21704.58,55728.72,8723599.0,-0.028593063354492188
1717176014.3373396,-22996.48,21711.96,55725.0,8721541.0,-0.02773284912109375
1717176014.473484,-22989.57,21719.339999999997,55721.28,8719380.0,-0.026803970336914062
1717176014.6096287,-22982.66,21723.03,55717.57000000001,8717063.0,-0.025882720947265625
1717176014.7457733,-22975.75,21730.410000000003,55713.86,8714543.0,-0.0249176025390625
1717176014.881918,-22968.84,21737.79,55710.14,8711951.0,-0.023954391479492188
1717176015.0180624,-22961.93,21745.17,55706.42,8709391.0,-0.023008346557617188
1717176015.154207,-22955.02,21748.86,55702.72,8706627.0,-0.022024154663085938
1717176015.2903516,-22948.11,21752.550000000003,55699.0,8703834.0,-0.021038055419921875
1717176015.4264963,-22941.2,21759.93,55695.28,8701054.0,-0.020063400268554688
1717176015.5626407,-22937.739999999998,21763.620000000003,55691.57000000001,8698387.0,-0.019123077392578125
1717176015.6987853,-22930.84,21771.0,55687.850000000006,8695694.0,-0.018194198608398438
1717176015.83493,-22923.93,21774.690000000002,55680.42,8693244.0,-0.017332077026367188
1717176015.9710746,-22920.47,21774.690000000002,55676.71000000001,8690989.0,-0.016529083251953125
1717176016.107219,-22917.02,21778.379999999997,55673.0,8688791.0,-0.015752792358398438
1717176016.2433636,-22913.559999999998,21778.379999999997,55669.28,8686839.0,-0.015048980712890625
1717176016.3795083,-22910.11,21778.379999999997,55665.57000000001,8684963.0,-0.014379501342773438
1717176016.515653,-22903.2,21782.07,55661.850000000006,8683307.0,-0.013772964477539062
1717176016.6517973,-22899.739999999998,21782.07,55661.850000000006,8681953.0,-0.01324462890625
1717176016.787942,-22896.29,21778.379999999997,55661.850000000006,8680707.0,-0.01276397705078125
1717176016.9240866,-22892.83,21778.379999999997,55661.850000000006,8679658.0,-0.012340545654296875
1717176017.0602312,-22892.83,21778.379999999997,55661.850000000006,8678906.0,-0.0119781494140625
1717176017.1963756,-22892.83,21778.379999999997,55661.850000000006,8678367.0,-0.01168060302734375
1717176017.3325202,-22889.379999999997,21778.379999999997,55661.850000000006,8677811.0,-0.01137542724609375
1717176017.468665,-22889.379999999997,21778.379999999997,55661.850000000006,8677498.0,-0.01113128662109375
1717176017.6048095,-22889.379999999997,21774.690000000002,55661.850000000006,8677481.0,-0.010957717895507812
1717176017.740954,-22889.379999999997,21774.690000000002,55661.850000000006,8677518.0,-0.010805130004882812
1717176017.8770986,-22889.379999999997,21771.0,55665.57000000001,8677798.0,-0.010707855224609375
1717176018.0132432,-22889.379999999997,21771.0,55669.28,8678098.0,-0.01062774658203125
1717176018.1493878,-22885.92,21774.690000000002,55669.28,8678454.0,-0.010578155517578125
1717176018.2855322,-22885.92,21771.0,55669.28,8678853.0,-0.010540008544921875
1717176018.4216769,-22889.379999999997,21763.620000000003,55669.28,8679360.0,-0.010532379150390625
1717176018.5578215,-22889.379999999997,21763.620000000003,55669.28,8679808.0,-0.010509490966796875
1717176018.6939662,-22889.379999999997,21767.309999999998,55669.28,8680179.0,-0.010469436645507812
1717176018.8301105,-22889.379999999997,21763.620000000003,55673.0,8680629.0,-0.01044464111328125
1717176018.9662552,-22889.379999999997,21763.620000000003,55676.71000000001,8680932.0,-0.01038360595703125
1717176019.1023998,-22889.379999999997,21767.309999999998,55676.71000000001,8681169.0,-0.0102996826171875
1717176019.2385445,-22889.379999999997,21767.309999999998,55676.71000000001,8681352.0,-0.010202407836914062
1717176019.3746889,-22889.379999999997,21763.620000000003,55676.71000000001,8681492.0,-0.010089874267578125
1717176019.5108335,-22889.379999999997,21767.309999999998,55676.71000000001,8681472.0,-0.00994110107421875
1717176019.6469781,-22889.379999999997,21767.309999999998,55676.71000000001,8681481.0,-0.009798049926757812
1717176019.7831228,-22889.379999999997,21767.309999999998,55676.71000000001,8681374.0,-0.009630203247070312
1717176019.9192672,-22892.83,21767.309999999998,55676.71000000001,8681004.0,-0.00940704345703125
1717176020.0554118,-22892.83,21771.0,55676.71000000001,8680488.0,-0.0091552734375
1717176020.1915565,-22892.83,21771.0,55676.71000000001,8679913.0,-0.008890151977539062
1717176020.327701,-22896.29,21771.0,55676.71000000001,8679218.0,-0.008594512939453125
1717176020.4638455,-22899.739999999998,21771.0,55676.71000000001,8678468.0,-0.008283615112304688
1717176020.5999901,-22903.2,21763.620000000003,55676.71000000001,8677476.0,-0.0079193115234375
1717176020.7361348,-22906.65,21763.620000000003,55680.42,8676426.0,-0.0075321197509765625
1717176020.8722794,-22910.11,21759.93,55680.42,8675499.0,-0.007175445556640625
1717176021.0084238,-22917.02,21752.550000000003,55680.42,8674346.0,-0.0067691802978515625
1717176021.1445684,-22920.47,21745.17,55684.14,8673185.0,-0.006374359130859375
1717176021.280713,-22923.93,21741.480000000003,55687.850000000006,8672032.0,-0.005970001220703125
1717176021.4168577,-22930.84,21737.79,55691.57000000001,8670936.0,-0.00559234619140625
1717176021.553002,-22934.29,21730.410000000003,55699.0,8669838.0,-0.0052280426025390625
1717176021.6891468,-22941.2,21723.03,55706.42,8668632.0,-0.004840850830078125
1717176021.8252914,-22948.11,21719.339999999997,55710.14,8667462.0,-0.00447845458984375
1717176021.961436,-22951.559999999998,21715.65,55713.86,8666359.0,-0.0041408538818359375
1717176022.0975804,-22958.48,21708.269999999997,55721.28,8665284.0,-0.003810882568359375
1717176022.233725,-22965.379999999997,21704.58,55728.72,8664158.0,-0.0034637451171875
1717176022.3698697,-22968.84,21700.89,55736.149999999994,8663128.0,-0.0031528472900390625
1717176022.506014,-22972.3,21697.199999999997,55743.58,8662077.0,-0.002838134765625
1717176022.6421587,-22975.75,21693.510000000002,55747.28999999999,8661154.0,-0.0025501251220703125
1717176022.7783034,-22982.66,21686.129999999997,55754.72,8660267.0,-0.0022830963134765625
1717176022.914448,-22989.57,21682.440000000002,55758.44,8659255.0,-0.00199127197265625
1717176023.0505924,-22993.03,21678.75,55762.16,8658405.0,-0.001750946044921875
1717176023.186737,-22999.940000000002,21671.370000000003,55769.58,8657763.0,-0.00156402587890625
1717176023.3228817,-23006.85,21667.68,55773.3,8657057.0,-0.0013561248779296875
1717176023.4590263,-23010.3,21663.989999999998,55780.729999999996,8656613.0,-0.00121307373046875
1717176023.5951707,-23013.760000000002,21660.300000000003,55788.16,8655994.0,-0.00106048583984375
1717176023.7313154,-23020.67,21660.300000000003,55795.59,8655462.0,-0.00091552734375
1717176023.86746,-23027.58,21656.61,55799.3,8654881.0,-0.0007534027099609375
1717176024.0036047,-23034.48,21652.92,55803.020000000004,8654528.0,-0.0006389617919921875
1717176024.139749,-23041.4,21649.230000000003,55806.740000000005,8654181.0,-0.0005245208740234375
1717176024.2758937,-23048.3,21645.54,55814.17,8653840.0,-0.0004062652587890625
1717176024.4120383,-23051.760000000002,21645.54,55817.880000000005,8653633.0,-0.000324249267578125
1717176024.548183,-23058.67,21645.54,55821.600000000006,8653486.0,-0.0002593994140625
1717176024.6843274,-23065.58,21641.85,55825.32000000001,8653283.0,-0.000179290771484375
1717176024.820472,-23072.489999999998,21638.160000000003,55829.03,8653116.0,-0.000110626220703125
1717176024.9566166,-23079.4,21634.47,55832.740000000005,8652841.0,-2.86102294921875e-05
1717176025.0927613,-23086.309999999998,21630.78,55836.46000000001,8652642.0,2.47955322265625e-05
1717176025.2289057,-23093.22,21630.78,55840.17,8652391.0,8.58306884765625e-05
1717176025.3650503,-23096.68,21630.78,55843.89,8652280.0,0.0001049041748046875
1717176025.501195,-23103.59,21623.4,55847.600000000006,8652190.0,0.0001239776611328125
1717176025.6373396,-23110.5,21616.019999999997,55855.03,8651952.0,0.0001811981201171875
1717176025.773484,-23117.4,21608.64,55858.75,8651674.0,0.00025177001953125
1717176025.9096286,-23120.86,21604.949999999997,55862.46000000001,8651305.0,0.00034332275390625
1717176026.0457733,-23124.32,21604.949999999997,55866.17,8651048.0,0.0004119873046875
1717176026.181918,-23131.22,21601.260000000002,55869.89,8650773.0,0.00048065185546875
1717176026.3180623,-23138.14,21597.57,55873.600000000006,8650391.0,0.0005779266357421875
1717176026.454207,-23141.59,21597.57,55877.32000000001,8649954.0,0.000682830810546875
1717176026.5903516,-23145.05,21597.57,55881.03,8649767.0,0.0007266998291015625
1717176026.7264962,-23148.5,21593.879999999997,55884.75,8649371.0,0.0008144378662109375
1717176026.8626406,-23151.96,21590.190000000002,55888.46000000001,8649003.0,0.0009136199951171875
1717176026.9987853,-23155.41,21590.190000000002,55888.46000000001,8648597.0,0.0010051727294921875
1717176027.13493,-23158.870000000003,21586.5,55892.17999999999,8648228.0,0.001087188720703125
1717176027.2710745,-23162.32,21586.5,55895.89,8647736.0,0.0012073516845703125
1717176027.407219,-23165.78,21586.5,55899.61,8647213.0,0.0013275146484375
1717176027.5433636,-23169.23,21586.5,55903.33,8646786.0,0.0014286041259765625
1717176027.6795082,-23172.690000000002,21586.5,55903.33,8646406.0,0.00151824951171875
1717176027.8156528,-23172.690000000002,21586.5,55903.33,8645999.0,0.0016193389892578125
1717176027.9517972,-23172.690000000002,21582.809999999998,55903.33,8645616.0,0.00170135498046875
1717176028.087942,-23172.690000000002,21582.809999999998,55903.33,8645278.0,0.001789093017578125
1717176028.2240865,-23172.690000000002,21586.5,55903.33,8644944.0,0.0018768310546875
1717176028.3602312,-23172.690000000002,21586.5,55903.33,8644677.0,0.0019283294677734375
1717176028.4963756,-23176.14,21590.190000000002,55903.33,8644392.0,0.0019855499267578125
