,x,y,z,temp,temp_error
1708449292.8937035,1244.1699999999983,-4664.75,2404.6399999999994,8610896.0,-0.000141143798828125
1708449293.029263,1335.5999999999985,-4760.029999999999,2404.6399999999994,8621155.0,-0.0032939910888671875
1708449293.1648228,1427.0199999999968,-4847.369999999999,2404.6399999999994,8631015.0,-0.0062999725341796875
1708449293.3003824,1522.4199999999983,-4926.77,2400.6800000000003,8639991.0,-0.008981704711914062
1708449293.435942,1621.800000000003,-4998.23,2392.769999999997,8648767.0,-0.011507034301757812
1708449293.5715017,1725.1500000000015,-5061.75,2384.8700000000026,8656683.0,-0.013751983642578125
1708449293.7070613,1832.4800000000032,-5121.299999999999,2376.949999999997,8664386.0,-0.015789031982421875
1708449293.8426208,1943.7699999999968,-5172.91,2365.0899999999965,8671471.0,-0.0176239013671875
1708449293.9781806,2055.0699999999997,-5224.52,2353.230000000003,8678221.0,-0.019214630126953125
1708449294.1137402,2170.3499999999985,-5268.189999999999,2341.3600000000006,8684412.0,-0.020650863647460938
1708449294.2492998,2289.5999999999985,-5307.889999999999,2329.5,8690019.0,-0.021793365478515625
1708449294.3848596,2412.8199999999997,-5343.619999999999,2317.6299999999974,8695278.0,-0.022792816162109375
1708449294.5204191,2540.019999999997,-5379.3499999999985,2305.760000000002,8699937.0,-0.02353668212890625
1708449294.655979,2671.199999999997,-5411.110000000001,2293.9000000000015,8704660.0,-0.024166107177734375
1708449294.7915385,2806.3499999999985,-5438.9000000000015,2282.029999999999,8709016.0,-0.024660110473632812
1708449294.927098,2941.5,-5462.720000000001,2274.1200000000026,8713454.0,-0.024999618530273438
1708449295.0626578,3080.6200000000026,-5486.540000000001,2266.209999999999,8717914.0,-0.025279998779296875
1708449295.1982174,3223.730000000003,-5506.389999999999,2258.300000000003,8722340.0,-0.025400161743164062
1708449295.333777,3370.800000000003,-5526.240000000002,2250.3899999999994,8727448.0,-0.025590896606445312
1708449295.4693367,3521.8499999999985,-5542.119999999999,2242.480000000003,8732211.0,-0.025634765625
1708449295.6048963,3672.9000000000015,-5558.0,2234.5699999999997,8737340.0,-0.025632858276367188
1708449295.7404559,3827.9199999999983,-5573.880000000001,2226.6600000000035,8742396.0,-0.025585174560546875
1708449295.8760157,3986.9199999999983,-5585.790000000001,2218.75,8747816.0,-0.025499343872070312
1708449296.0115752,4149.9000000000015,-5597.700000000001,2214.800000000003,8753316.0,-0.025449752807617188
1708449296.1471348,4312.870000000003,-5609.610000000001,2210.8399999999965,8758754.0,-0.025279998779296875
1708449296.2826946,4479.82,-5617.549999999999,2206.8899999999994,8764385.0,-0.025125503540039062
1708449296.4182541,4650.75,-5625.490000000002,2202.9300000000003,8769749.0,-0.024871826171875
1708449296.5538137,4821.669999999998,-5629.459999999999,2198.980000000003,8775744.0,-0.024677276611328125
1708449296.6893735,4996.57,-5633.43,2195.019999999997,8781462.0,-0.02448272705078125
1708449296.824933,5175.449999999997,-5637.4000000000015,2191.0699999999997,8787057.0,-0.024179458618164062
1708449296.9604926,5354.32,-5641.369999999999,2187.1100000000006,8792710.0,-0.023899078369140625
1708449297.0960524,5537.169999999998,-5645.34,2183.1600000000035,8798196.0,-0.023515701293945312
1708449297.231612,5724.0,-5645.34,2179.199999999997,8803998.0,-0.023244857788085938
1708449297.3671718,5910.82,-5645.34,2175.25,8809648.0,-0.022905349731445312
1708449297.5027313,6101.620000000003,-5641.369999999999,2171.300000000003,8815296.0,-0.0225372314453125
1708449297.638291,6292.419999999998,-5637.4000000000015,2171.300000000003,8820636.0,-0.022125244140625
1708449297.7738507,6487.199999999997,-5633.43,2171.300000000003,8826605.0,-0.021776199340820312
1708449297.9094102,6681.980000000003,-5629.459999999999,2171.300000000003,8832852.0,-0.021528244018554688
1708449298.0449698,6880.730000000003,-5625.490000000002,2171.300000000003,8839080.0,-0.021207809448242188
1708449298.1805296,7079.480000000003,-5621.52,2171.300000000003,8845806.0,-0.02098846435546875
1708449298.3160892,7282.199999999997,-5613.580000000002,2171.300000000003,8852547.0,-0.020723342895507812
1708449298.4516487,7484.919999999998,-5605.639999999999,2171.300000000003,8860188.0,-0.02063751220703125
1708449298.5872085,7687.6500000000015,-5597.700000000001,2171.300000000003,8867791.0,-0.020565032958984375
1708449298.722768,7894.3499999999985,-5589.759999999998,2171.300000000003,8875634.0,-0.0204925537109375
1708449298.8583276,8101.050000000003,-5581.82,2171.300000000003,8883537.0,-0.020448684692382812
1708449298.9938874,8311.730000000003,-5569.91,2171.300000000003,8892020.0,-0.020441055297851562
1708449299.129447,8522.400000000001,-5558.0,2171.300000000003,8900930.0,-0.020580291748046875
1708449299.2650065,8737.050000000003,-5546.09,2171.300000000003,8909564.0,-0.020658493041992188
1708449299.4005663,8951.699999999997,-5534.18,2171.300000000003,8918745.0,-0.020765304565429688
1708449299.536126,9166.349999999999,-5522.27,2171.300000000003,8927794.0,-0.02086639404296875
1708449299.6716855,9384.980000000003,-5506.389999999999,2171.300000000003,8937693.0,-0.02105712890625
1708449299.8072453,9603.599999999999,-5490.509999999998,2171.300000000003,8947848.0,-0.021348953247070312
1708449299.9428048,9826.199999999997,-5474.630000000001,2175.25,8957946.0,-0.021551132202148438
1708449300.0783646,10048.800000000003,-5458.75,2175.25,8968354.0,-0.021808624267578125
1708449300.2139242,10275.370000000003,-5442.869999999999,2179.199999999997,8978841.0,-0.022014617919921875
1708449300.3494837,10501.949999999997,-5426.990000000002,2183.1600000000035,8990113.0,-0.022348403930664062
1708449300.4850435,10728.519999999997,-5411.110000000001,2183.1600000000035,9001462.0,-0.022710800170898438
1708449300.620603,10959.07,-5395.23,2187.1100000000006,9012971.0,-0.02301025390625
1708449300.7561626,11189.620000000003,-5379.3499999999985,2191.0699999999997,9024642.0,-0.023326873779296875
1708449300.8917224,11424.150000000001,-5363.470000000001,2191.0699999999997,9036761.0,-0.023622512817382812
1708449301.027282,11658.669999999998,-5343.619999999999,2195.019999999997,9049708.0,-0.0240936279296875
1708449301.1628416,11897.169999999998,-5323.77,2198.980000000003,9062288.0,-0.0244293212890625
1708449301.2984014,12135.669999999998,-5307.889999999999,2202.9300000000003,9075522.0,-0.024820327758789062
1708449301.433961,12378.150000000001,-5288.040000000001,2206.8899999999994,9088740.0,-0.025150299072265625
1708449301.5695205,12620.620000000003,-5272.16,2210.8399999999965,9102792.0,-0.025556564331054688
1708449301.7050803,12867.07,-5252.310000000001,2214.800000000003,9116981.0,-0.02600860595703125
1708449301.8406398,13113.519999999997,-5232.459999999999,2218.75,9131429.0,-0.02637481689453125
1708449301.9761994,13363.949999999997,-5212.610000000001,2218.75,9146195.0,-0.02677154541015625
1708449302.1117592,13614.370000000003,-5192.759999999998,2222.709999999999,9161300.0,-0.027105331420898438
1708449302.2473187,13868.769999999997,-5172.91,2226.6600000000035,9177362.0,-0.027587890625
1708449302.3828783,14127.150000000001,-5153.060000000001,2230.6200000000026,9193271.0,-0.0279998779296875
1708449302.518438,14385.519999999997,-5133.209999999999,2234.5699999999997,9209799.0,-0.028408050537109375
1708449302.6539977,14647.870000000003,-5113.360000000001,2238.529999999999,9226340.0,-0.028759002685546875
1708449302.7895575,14910.230000000003,-5093.509999999998,2238.529999999999,9244029.0,-0.029188156127929688
1708449302.925117,15176.550000000003,-5073.66,2242.480000000003,9262054.0,-0.029687881469726562
1708449303.0606766,15446.849999999999,-5053.810000000001,2246.4400000000023,9280220.0,-0.0300750732421875
1708449303.1962364,15721.120000000003,-5033.959999999999,2246.4400000000023,9298761.0,-0.0304718017578125
1708449303.331796,15995.400000000001,-5014.110000000001,2250.3899999999994,9317814.0,-0.030817031860351562
1708449303.4673555,16273.650000000001,-4994.259999999998,2254.3499999999985,9337836.0,-0.03129768371582031
1708449303.6029153,16555.870000000003,-4974.41,2254.3499999999985,9357988.0,-0.03173255920410156
1708449303.7384748,16842.08,-4954.560000000001,2258.300000000003,9378776.0,-0.03214073181152344
1708449303.8740344,17132.25,-4934.709999999999,2258.300000000003,9399932.0,-0.03253173828125
1708449304.0095942,17422.42,-4914.860000000001,2258.300000000003,9422024.0,-0.032928466796875
1708449304.1451538,17716.58,-4895.009999999998,2262.260000000002,9444863.0,-0.0334625244140625
1708449304.2807133,18014.699999999997,-4875.16,2262.260000000002,9467726.0,-0.03385353088378906
1708449304.416273,18316.800000000003,-4855.310000000001,2266.209999999999,9491311.0,-0.034271240234375
1708449304.5518327,18622.870000000003,-4835.459999999999,2270.1699999999983,9515311.0,-0.03461647033691406
1708449304.6873922,18932.92,-4815.610000000001,2274.1200000000026,9540594.0,-0.035091400146484375
1708449304.822952,19246.949999999997,-4795.759999999998,2278.0800000000017,9566233.0,-0.03557395935058594
1708449304.9585116,19568.92,-4779.880000000001,2282.029999999999,9592458.0,-0.03597450256347656
1708449305.0940711,19894.870000000003,-4764.0,2282.029999999999,9619191.0,-0.03638648986816406
1708449305.229631,20224.800000000003,-4748.119999999999,2285.989999999998,9646876.0,-0.03676033020019531
1708449305.3651905,20558.699999999997,-4732.240000000002,2285.989999999998,9675840.0,-0.03731727600097656
1708449305.5007503,20900.550000000003,-4712.389999999999,2289.9400000000023,9704841.0,-0.03773689270019531
1708449305.6363099,21246.370000000003,-4696.509999999998,2293.9000000000015,9734910.0,-0.03818702697753906
1708449305.7718694,21600.15,-4680.630000000001,2293.9000000000015,9765461.0,-0.03856658935546875
1708449305.9074292,21957.9,-4664.75,2297.8499999999985,9797363.0,-0.03903007507324219
1708449306.0429888,22323.6,-4648.869999999999,2297.8499999999985,9830026.0,-0.039577484130859375
1708449306.1785483,22697.25,-4632.990000000002,2297.8499999999985,9863408.0,-0.04001808166503906
1708449306.3141081,23078.85,-4617.110000000001,2297.8499999999985,9884191.0,-0.04044151306152344
1708449306.4496677,23468.4,-4601.23,2297.8499999999985,9885969.0,-0.04083824157714844
1708449306.5852273,23865.9,-4585.3499999999985,2297.8499999999985,9888496.0,-0.04144096374511719
1708449306.720787,24271.35,-4565.5,2297.8499999999985,9890440.0,-0.041942596435546875
1708449306.8563466,24684.75,-4549.619999999999,2297.8499999999985,9892531.0,-0.0424346923828125
1708449306.9919062,25110.08,-4533.740000000002,2301.8099999999977,9894099.0,-0.042850494384765625
1708449307.127466,25543.35,-4517.860000000001,2301.8099999999977,9896458.0,-0.04336357116699219
1708449307.2630255,25988.550000000003,-4501.98,2301.8099999999977,9898803.0,-0.04397392272949219
1708449307.398585,26445.68,-4490.07,2301.8099999999977,9900940.0,-0.04447746276855469
1708449307.5341449,26914.730000000003,-4478.16,2301.8099999999977,9902939.0,-0.04498481750488281
1708449307.6697044,27395.699999999997,-4466.25,2301.8099999999977,9904972.0,-0.04544830322265625
1708449307.805264,27892.58,-4454.34,2301.8099999999977,9907729.0,-0.046070098876953125
1708449307.9408238,28405.35,-4442.43,2301.8099999999977,9910117.0,-0.04670143127441406
1708449308.0763834,28934.019999999997,-4434.490000000002,2301.8099999999977,9912441.0,-0.04725074768066406
1708449308.2119431,29478.6,-4426.549999999999,2301.8099999999977,9914596.0,-0.04776954650878906
1708449308.3475027,30039.08,-4418.610000000001,2301.8099999999977,9917299.0,-0.04834175109863281
1708449308.4830623,30619.42,-4410.669999999998,2301.8099999999977,9920225.0,-0.04908180236816406
1708449308.618622,31219.65,-4406.700000000001,2301.8099999999977,9922686.0,-0.04969024658203125
1708449308.7541816,31839.75,-4402.73,2297.8499999999985,9925230.0,-0.05031013488769531
1708449308.8897412,32483.699999999997,-4402.73,2293.9000000000015,9927459.0,-0.05081939697265625
1708449309.025301,33151.5,-4398.759999999998,2289.9400000000023,9930825.0,-0.05158805847167969
1708449309.1608605,33843.16,-4394.790000000001,2285.989999999998,9933672.0,-0.05231666564941406
1708449309.29642,34558.649999999994,-4394.790000000001,2282.029999999999,9936410.0,-0.05296897888183594
1708449309.43198,35301.979999999996,-4398.759999999998,2278.0800000000017,9938792.0,-0.05355262756347656
1708449309.5675395,36073.130000000005,-4398.759999999998,2274.1200000000026,9941640.0,-0.054187774658203125
1708449309.703099,36872.100000000006,-4394.790000000001,2270.1699999999983,9944946.0,-0.055019378662109375
1708449309.8386588,37694.92,-4394.790000000001,2262.260000000002,9947504.0,-0.05569648742675781
1708449309.9742184,38545.58,-4390.82,2258.300000000003,9949628.0,-0.056278228759765625
1708449310.109778,39420.08,-4386.8499999999985,2254.3499999999985,9951749.0,-0.05679130554199219
1708449310.2453377,40318.42,-4378.91,2250.3899999999994,9954653.0,-0.057529449462890625
1708449310.3808973,41236.649999999994,-4359.060000000001,2246.4400000000023,9956771.0,-0.05819511413574219
1708449310.5164568,42170.78,-4339.209999999999,2242.480000000003,9958565.0,-0.05871772766113281
1708449310.6520166,43112.850000000006,-4307.450000000001,2242.480000000003,9959504.0,-0.05908393859863281
1708449310.7875762,44058.91,-4263.779999999999,2242.480000000003,9961179.0,-0.059520721435546875
1708449310.9231358,45000.979999999996,-4208.200000000001,2246.4400000000023,9963054.0,-0.06014060974121094
1708449311.0586956,45935.100000000006,-4140.709999999999,2254.3499999999985,9963993.0,-0.06053733825683594
1708449311.194255,46845.380000000005,-4061.3100000000013,2266.209999999999,9964240.0,-0.06078910827636719
1708449311.329815,47727.83,-3966.029999999999,2282.029999999999,9964689.0,-0.0609588623046875
1708449311.4653745,48570.53,-3854.869999999999,2301.8099999999977,9966260.0,-0.06139945983886719
1708449311.600934,49365.53,-3731.7999999999993,2329.5,9967487.0,-0.06186676025390625
1708449311.7364938,50104.880000000005,-3600.790000000001,2361.1399999999994,9968540.0,-0.06217765808105469
1708449311.8720534,50780.630000000005,-3461.84,2396.730000000003,9969611.0,-0.06243896484375
1708449312.007613,51388.8,-3318.9199999999983,2436.279999999999,9971749.0,-0.06284332275390625
1708449312.1431727,51933.380000000005,-3176.0,2479.779999999999,9974506.0,-0.06350326538085938
1708449312.2787323,52410.380000000005,-3037.0499999999993,2523.290000000001,9976534.0,-0.06399154663085938
1708449312.4142919,52827.75,-2906.040000000001,2566.800000000003,9978175.0,-0.06441116333007812
1708449312.5498517,53189.490000000005,-2782.970000000001,2610.300000000003,9979449.0,-0.06469917297363281
1708449312.6854112,53495.56,-2667.84,2649.8499999999985,9981387.0,-0.06517410278320312
1708449312.8209708,53757.91,-2564.619999999999,2689.4000000000015,9982750.0,-0.065643310546875
1708449312.9565306,53980.5,-2469.34,2725.0,9983104.0,-0.06587600708007812
1708449313.0920901,54167.33,-2385.970000000001,2756.6399999999994,9982989.0,-0.06601715087890625
1708449313.2276497,54322.36,-2314.5099999999984,2784.3199999999997,9982621.0,-0.06604385375976562
1708449313.3632095,54453.53,-2250.9900000000016,2808.050000000003,9982769.0,-0.06623649597167969
1708449313.498769,54560.850000000006,-2195.41,2831.779999999999,9982205.0,-0.06636238098144531
1708449313.6343286,54652.28,-2147.7700000000004,2851.550000000003,9981239.0,-0.06630897521972656
1708449313.7698884,54727.8,-2108.0699999999997,2867.3700000000026,9979757.0,-0.066131591796875
1708449313.905448,54791.41,-2072.34,2879.239999999998,9979045.0,-0.06605148315429688
1708449314.0410078,54843.08,-2044.5499999999993,2891.0999999999985,9978316.0,-0.06607246398925781
1708449314.1765673,54886.8,-2020.7299999999996,2899.010000000002,9976831.0,-0.06588363647460938
1708449314.3121269,54922.58,-2000.880000000001,2906.9199999999983,9975175.0,-0.06563949584960938
1708449314.4476867,54954.380000000005,-1985.0,2914.8300000000017,9973712.0,-0.06533432006835938
1708449314.5832462,54978.229999999996,-1969.119999999999,2918.790000000001,9973166.0,-0.06528282165527344
1708449314.7188058,54998.100000000006,-1957.2099999999991,2922.75,9971803.0,-0.06508445739746094
1708449314.8543656,55017.990000000005,-1949.2700000000004,2926.699999999997,9970348.0,-0.06481552124023438
1708449314.9899251,55033.880000000005,-1941.3300000000017,2930.6600000000035,9968429.0,-0.06442832946777344
1708449315.1254847,55045.8,-1929.4199999999983,2934.6100000000006,9967479.0,-0.0641937255859375
1708449315.2610445,55057.729999999996,-1921.4799999999996,2938.5699999999997,9966665.0,-0.0640716552734375
1708449315.396604,55065.67999999999,-1917.5099999999984,2938.5699999999997,9965304.0,-0.06378173828125
1708449315.5321636,55073.630000000005,-1913.5400000000009,2942.519999999997,9963748.0,-0.06345367431640625
1708449315.6677234,55077.600000000006,-1909.5699999999997,2942.519999999997,9962370.0,-0.06307792663574219
1708449315.803283,55081.58,-1905.5999999999985,2942.519999999997,9961652.0,-0.06293106079101562
1708449315.9388425,55085.56,-1901.630000000001,2942.519999999997,9960478.0,-0.06268882751464844
1708449316.0744023,55085.56,-1897.6599999999999,2946.480000000003,9959237.0,-0.06239128112792969
1708449316.209962,55085.56,-1897.6599999999999,2946.480000000003,9957758.0,-0.06202888488769531
1708449316.3455215,55085.56,-1893.6899999999987,2946.480000000003,9956780.0,-0.06172370910644531
1708449316.4810812,55085.56,-1893.6899999999987,2946.480000000003,9956093.0,-0.06160926818847656
1708449316.6166408,55085.56,-1893.6899999999987,2946.480000000003,9954841.0,-0.06130409240722656
1708449316.7522006,55085.56,-1893.6899999999987,2950.4300000000003,9953294.0,-0.06095695495605469
1708449316.8877602,55085.56,-1893.6899999999987,2950.4300000000003,9951983.0,-0.06057167053222656
1708449317.0233197,55085.56,-1893.6899999999987,2950.4300000000003,9951260.0,-0.06040382385253906
1708449317.1588795,55085.56,-1893.6899999999987,2950.4300000000003,9950130.0,-0.06016349792480469
1708449317.294439,55085.56,-1893.6899999999987,2950.4300000000003,9948843.0,-0.05984687805175781
1708449317.4299986,55085.56,-1893.6899999999987,2950.4300000000003,9947196.0,-0.0594482421875
1708449317.5655584,55085.56,-1893.6899999999987,2950.4300000000003,9946373.0,-0.05916023254394531
1708449317.701118,55085.56,-1893.6899999999987,2950.4300000000003,9945602.0,-0.05900764465332031
1708449317.8366776,55085.56,-1893.6899999999987,2950.4300000000003,9944405.0,-0.05870819091796875
1708449317.9722373,55085.56,-1893.6899999999987,2954.3899999999994,9942968.0,-0.05837440490722656
1708449318.107797,55085.56,-1897.6599999999999,2954.3899999999994,9941638.0,-0.05799102783203125
1708449318.2433565,55085.56,-1897.6599999999999,2954.3899999999994,9940987.0,-0.05779457092285156
1708449318.3789163,55085.56,-1897.6599999999999,2954.3899999999994,9939996.0,-0.057586669921875
1708449318.5144758,55085.56,-1897.6599999999999,2954.3899999999994,9938789.0,-0.05727958679199219
1708449318.6500354,55085.56,-1901.630000000001,2954.3899999999994,9937161.0,-0.05689048767089844
1708449318.7855952,55085.56,-1905.5999999999985,2954.3899999999994,9936357.0,-0.05660438537597656
1708449318.9211547,55085.56,-1905.5999999999985,2958.3399999999965,9935498.0,-0.056438446044921875
1708449319.0567143,55085.56,-1905.5999999999985,2958.3399999999965,9934191.0,-0.05612945556640625
1708449319.192274,55085.56,-1905.5999999999985,2958.3399999999965,9932872.0,-0.05580329895019531
1708449319.3278337,55085.56,-1905.5999999999985,2958.3399999999965,9931398.0,-0.055389404296875
1708449319.4633934,55085.56,-1905.5999999999985,2958.3399999999965,9930949.0,-0.05523681640625
1708449319.598953,55085.56,-1905.5999999999985,2958.3399999999965,9929895.0,-0.05501747131347656
1708449319.7345126,55085.56,-1905.5999999999985,2958.3399999999965,9928619.0,-0.05469703674316406
1708449319.8700724,55085.56,-1905.5999999999985,2958.3399999999965,9926896.0,-0.05429649353027344
1708449320.005632,55085.56,-1905.5999999999985,2958.3399999999965,9925927.0,-0.05397987365722656
1708449320.1411915,55085.56,-1905.5999999999985,2958.3399999999965,9925444.0,-0.05386161804199219
