,x,y,z,temp,temp_error
1708451158.3059053,11177.699999999997,-8003.52,1123.2200000000012,10617213.0,-0.2259044647216797
1708451158.4396517,11889.230000000003,-8051.16,1135.0800000000017,10619450.0,-0.22657012939453125
1708451158.5733979,12612.669999999998,-8086.889999999999,1143.0,10621537.0,-0.2271270751953125
1708451158.7071443,13348.050000000003,-8110.709999999999,1150.9100000000035,10624367.0,-0.22772789001464844
1708451158.8408904,14099.32,-8118.6500000000015,1158.8199999999997,10627722.0,-0.2286357879638672
1708451158.9746368,14862.519999999997,-8118.6500000000015,1166.7300000000032,10630129.0,-0.22926902770996094
1708451159.1083832,15641.620000000003,-8110.709999999999,1174.6399999999994,10632385.0,-0.2297840118408203
1708451159.2421293,16432.65,-8094.830000000002,1182.550000000003,10636325.0,-0.23070144653320312
1708451159.3758757,17239.58,-8067.040000000001,1190.449999999997,10639174.0,-0.23147964477539062
1708451159.5096219,18062.4,-8039.25,1194.4100000000035,10641602.0,-0.2320690155029297
1708451159.6433682,18901.120000000003,-8003.52,1202.3199999999997,10645004.0,-0.23279380798339844
1708451159.7771146,19755.75,-7959.8499999999985,1210.2300000000032,10648496.0,-0.23374176025390625
1708451159.9108608,20626.28,-7912.209999999999,1218.1399999999994,10651077.0,-0.23439788818359375
1708451160.0446072,21512.699999999997,-7860.5999999999985,1226.050000000003,10653579.0,-0.2349529266357422
1708451160.1783533,22415.019999999997,-7801.049999999999,1233.9599999999991,10657571.0,-0.2359447479248047
1708451160.3120997,23337.230000000003,-7737.529999999999,1241.8700000000026,10660280.0,-0.23670578002929688
1708451160.445846,24275.32,-7674.009999999998,1249.7799999999988,10662295.0,-0.23723411560058594
1708451160.5795922,25229.33,-7602.549999999999,1261.6399999999994,10666038.0,-0.23806381225585938
1708451160.7133386,26203.199999999997,-7523.1500000000015,1273.510000000002,10669238.0,-0.2389659881591797
1708451160.8470848,27192.980000000003,-7443.75,1285.3700000000026,10671314.0,-0.23952484130859375
1708451160.9808311,28198.65,-7360.380000000001,1297.239999999998,10674071.0,-0.2401275634765625
1708451161.1145775,29220.230000000003,-7269.07,1313.0599999999977,10677658.0,-0.24112510681152344
1708451161.2483237,30257.699999999997,-7173.790000000001,1328.8799999999974,10679674.0,-0.24173545837402344
1708451161.38207,31311.08,-7074.540000000001,1344.699999999997,10681408.0,-0.2421855926513672
1708451161.5158162,32380.35,-6967.3499999999985,1364.4800000000032,10684891.0,-0.2430419921875
1708451161.6495626,33461.55,-6852.220000000001,1384.25,10686989.0,-0.243743896484375
1708451161.783309,34554.67,-6733.119999999999,1407.9800000000032,10688350.0,-0.24416351318359375
1708451161.9170551,35655.75,-6606.080000000002,1431.7099999999991,10690770.0,-0.244720458984375
1708451162.0508015,36760.8,-6467.130000000001,1459.3899999999994,10693397.0,-0.2455310821533203
1708451162.184548,37869.83,-6320.240000000002,1487.0800000000017,10694651.0,-0.24598312377929688
1708451162.318294,38978.850000000006,-6165.41,1518.7200000000012,10695931.0,-0.24630355834960938
1708451162.4520404,40083.91,-5998.669999999998,1550.3600000000006,10698608.0,-0.2470378875732422
1708451162.5857866,41181.0,-5820.02,1585.949999999997,10699903.0,-0.24754714965820312
1708451162.719533,42266.17999999999,-5633.43,1625.5,10700473.0,-0.2477855682373047
1708451162.8532794,43335.46000000001,-5434.93,1665.050000000003,10702386.0,-0.2482318878173828
1708451162.9870255,44380.880000000005,-5224.52,1708.5599999999977,10704393.0,-0.24889564514160156
1708451163.120772,45402.46000000001,-5002.200000000001,1756.0199999999968,10705272.0,-0.24921798706054688
1708451163.254518,46392.229999999996,-4775.91,1803.4800000000032,10706327.0,-0.24944305419921875
1708451163.3882644,47342.25,-4537.709999999999,1850.9400000000023,10708998.0,-0.2501373291015625
1708451163.5220108,48252.53,-4295.540000000001,1902.3499999999985,10710240.0,-0.25055885314941406
1708451163.655757,49115.100000000006,-4053.369999999999,1957.7300000000032,10711097.0,-0.25078582763671875
1708451163.7895033,49926.0,-3807.2299999999996,2013.0899999999965,10713549.0,-0.2513084411621094
1708451163.9232495,50685.229999999996,-3561.09,2068.459999999999,10715658.0,-0.2519245147705078
1708451164.0569959,51388.8,-3318.9199999999983,2123.8300000000017,10716900.0,-0.25227928161621094
1708451164.1907423,52036.729999999996,-3080.720000000001,2179.199999999997,10718490.0,-0.2525653839111328
1708451164.3244884,52625.03,-2850.459999999999,2234.5699999999997,10721139.0,-0.25327301025390625
1708451164.4582348,53157.67999999999,-2628.1399999999994,2289.9400000000023,10722419.0,-0.2536582946777344
1708451164.591981,53638.66,-2421.7000000000007,2341.3600000000006,10723048.0,-0.25385093688964844
1708451164.7257273,54067.96000000001,-2223.2000000000007,2392.769999999997,10724893.0,-0.2543487548828125
1708451164.8594737,54445.58,-2040.5800000000017,2440.230000000003,10725523.0,-0.25469207763671875
1708451164.9932199,54779.490000000005,-1873.8400000000001,2483.739999999998,10725362.0,-0.2548179626464844
1708451165.1269662,55073.630000000005,-1719.0099999999984,2523.290000000001,10725279.0,-0.25488853454589844
1708451165.2607124,55332.0,-1580.0600000000013,2558.8899999999994,10725266.0,-0.25514984130859375
1708451165.3944588,55554.600000000006,-1453.0200000000004,2590.519999999997,10723900.0,-0.25507354736328125
1708451165.5282052,55749.380000000005,-1337.8899999999994,2618.209999999999,10722331.0,-0.25485992431640625
1708451165.6619513,55916.33,-1234.6699999999983,2645.8899999999994,10721519.0,-0.2548942565917969
1708451165.7956977,56059.42,-1143.3600000000006,2669.6200000000026,10719824.0,-0.2547168731689453
1708451165.9294438,56182.66,-1063.9599999999991,2689.4000000000015,10717204.0,-0.25433921813964844
1708451166.0631902,56289.990000000005,-992.5,2705.220000000001,10715418.0,-0.2540416717529297
1708451166.1969366,56381.41,-932.9500000000007,2721.040000000001,10713423.0,-0.2538108825683594
1708451166.3306828,56456.92,-881.3400000000001,2732.9100000000035,10710858.0,-0.2533760070800781
1708451166.4644291,56524.5,-833.7000000000007,2744.769999999997,10708192.0,-0.2528343200683594
1708451166.5981753,56580.16,-794.0,2752.6800000000003,10706388.0,-0.2525653839111328
1708451166.7319217,56627.850000000006,-758.2700000000004,2760.5899999999965,10703635.0,-0.25205421447753906
1708451166.865668,56667.600000000006,-730.4799999999996,2768.5,10700710.0,-0.25147438049316406
1708451166.9994142,56699.41,-706.6599999999999,2776.4100000000035,10698538.0,-0.2509803771972656
1708451167.1331606,56727.229999999996,-686.8100000000013,2780.3700000000026,10695908.0,-0.2505016326904297
1708451167.2669067,56751.08,-670.9300000000003,2784.3199999999997,10692805.0,-0.24987030029296875
1708451167.4006531,56770.96000000001,-655.0499999999993,2788.269999999997,10690288.0,-0.2492237091064453
1708451167.5343995,56786.850000000006,-639.1699999999983,2792.230000000003,10688119.0,-0.24880027770996094
1708451167.6681457,56798.78,-627.2599999999984,2796.1800000000003,10685382.0,-0.24818038940429688
1708451167.801892,56810.71000000001,-615.3499999999985,2796.1800000000003,10682388.0,-0.24749183654785156
1708451167.9356382,56822.630000000005,-607.4099999999999,2796.1800000000003,10680364.0,-0.2469654083251953
1708451168.0693846,56830.58,-599.4700000000012,2800.1399999999994,10677608.0,-0.24637985229492188
1708451168.203131,56838.53,-595.5,2800.1399999999994,10674696.0,-0.245697021484375
1708451168.336877,56842.5,-591.5299999999988,2804.0899999999965,10672318.0,-0.24504661560058594
1708451168.4706235,56846.490000000005,-587.5600000000013,2804.0899999999965,10669932.0,-0.24454307556152344
1708451168.6043696,56850.46000000001,-583.5900000000001,2804.0899999999965,10667080.0,-0.24386024475097656
1708451168.738116,56854.42,-579.619999999999,2804.0899999999965,10664192.0,-0.2431163787841797
1708451168.8718624,56858.41,-575.6500000000015,2808.050000000003,10662266.0,-0.24261856079101562
1708451169.0056086,56858.41,-571.6800000000003,2808.050000000003,10659568.0,-0.24199485778808594
1708451169.139355,56858.41,-571.6800000000003,2808.050000000003,10656654.0,-0.24127769470214844
1708451169.2731013,56858.41,-571.6800000000003,2808.050000000003,10654268.0,-0.24062156677246094
1708451169.4068475,56858.41,-571.6800000000003,2812.0,10651960.0,-0.24010467529296875
1708451169.5405939,56858.41,-571.6800000000003,2812.0,10649041.0,-0.23939132690429688
1708451169.67434,56858.41,-571.6800000000003,2812.0,10646056.0,-0.2386302947998047
1708451169.8080864,56858.41,-571.6800000000003,2812.0,10644121.0,-0.23811912536621094
1708451169.9418328,56858.41,-571.6800000000003,2812.0,10641329.0,-0.2374591827392578
1708451170.075579,56858.41,-571.6800000000003,2812.0,10638362.0,-0.23673439025878906
1708451170.2093253,56858.41,-571.6800000000003,2812.0,10636116.0,-0.2360820770263672
1708451170.3430715,56858.41,-571.6800000000003,2812.0,10633640.0,-0.23553085327148438
1708451170.4768178,56858.41,-571.6800000000003,2812.0,10630973.0,-0.23484420776367188
1708451170.6105642,56858.41,-571.6800000000003,2815.959999999999,10627981.0,-0.2340679168701172
1708451170.7443104,56858.41,-571.6800000000003,2815.959999999999,10625986.0,-0.2335643768310547
1708451170.8780568,56858.41,-571.6800000000003,2815.959999999999,10623346.0,-0.23290443420410156
1708451171.011803,56858.41,-571.6800000000003,2815.959999999999,10620300.0,-0.2321605682373047
1708451171.1455493,56858.41,-571.6800000000003,2815.959999999999,10618184.0,-0.231536865234375
1708451171.2792957,56858.41,-571.6800000000003,2819.9100000000035,10615739.0,-0.23097801208496094
1708451171.4130418,56858.41,-571.6800000000003,2819.9100000000035,10612978.0,-0.23027801513671875
1708451171.5467882,56858.41,-571.6800000000003,2819.9100000000035,10610097.0,-0.22951316833496094
1708451171.6805344,56858.41,-571.6800000000003,2823.8700000000026,10608185.0,-0.22903060913085938
1708451171.8142807,56858.41,-571.6800000000003,2823.8700000000026,10605361.0,-0.22834205627441406
1708451171.9480271,56858.41,-571.6800000000003,2823.8700000000026,10602322.0,-0.22758865356445312
1708451172.0817733,56858.41,-571.6800000000003,2823.8700000000026,10600318.0,-0.22698974609375
1708451172.2155197,56858.41,-571.6800000000003,2823.8700000000026,10597755.0,-0.2264118194580078
1708451172.3492658,56858.41,-571.6800000000003,2823.8700000000026,10595048.0,-0.2257232666015625
1708451172.4830122,56858.41,-571.6800000000003,2823.8700000000026,10592128.0,-0.22494888305664062
1708451172.6167586,56858.41,-571.6800000000003,2823.8700000000026,10590267.0,-0.22447586059570312
1708451172.7505047,56858.41,-571.6800000000003,2823.8700000000026,10587481.0,-0.22378921508789062
1708451172.884251,56858.41,-571.6800000000003,2823.8700000000026,10584576.0,-0.223052978515625
1708451173.0179973,56858.41,-571.6800000000003,2827.8199999999997,10582628.0,-0.22248458862304688
1708451173.1517437,56858.41,-571.6800000000003,2827.8199999999997,10580083.0,-0.22188758850097656
1708451173.28549,56858.41,-571.6800000000003,2827.8199999999997,10577270.0,-0.2211933135986328
1708451173.4192362,56858.41,-571.6800000000003,2827.8199999999997,10574610.0,-0.22044754028320312
1708451173.5529826,56858.41,-571.6800000000003,2827.8199999999997,10572505.0,-0.21996307373046875
1708451173.6867287,56858.41,-571.6800000000003,2831.779999999999,10569824.0,-0.2192840576171875
1708451173.820475,56858.41,-571.6800000000003,2831.779999999999,10566796.0,-0.21850204467773438
1708451173.9542215,56858.41,-571.6800000000003,2831.779999999999,10564981.0,-0.21799659729003906
1708451174.0879676,56858.41,-571.6800000000003,2831.779999999999,10562397.0,-0.21738052368164062
1708451174.221714,56858.41,-571.6800000000003,2831.779999999999,10559564.0,-0.21668243408203125
1708451174.3554602,56858.41,-571.6800000000003,2831.779999999999,10557187.0,-0.215972900390625
1708451174.4892066,56858.41,-571.6800000000003,2831.779999999999,10555064.0,-0.2154979705810547
1708451174.622953,56858.41,-571.6800000000003,2831.779999999999,10552294.0,-0.21480560302734375
1708451174.756699,56858.41,-571.6800000000003,2831.779999999999,10549342.0,-0.2140350341796875
1708451174.8904455,56858.41,-571.6800000000003,2831.779999999999,10547689.0,-0.21357154846191406
1708451175.0241916,56858.41,-571.6800000000003,2831.779999999999,10544951.0,-0.2129230499267578
1708451175.157938,56858.41,-571.6800000000003,2831.779999999999,10542137.0,-0.21222496032714844
1708451175.2916844,56858.41,-571.6800000000003,2831.779999999999,10539842.0,-0.21153640747070312
1708451175.4254305,56858.41,-571.6800000000003,2831.779999999999,10537707.0,-0.2110595703125
1708451175.559177,56858.41,-571.6800000000003,2831.779999999999,10535039.0,-0.21038436889648438
1708451175.692923,56858.41,-571.6800000000003,2831.779999999999,10532205.0,-0.2096271514892578
1708451175.8266695,56858.41,-571.6800000000003,2831.779999999999,10530425.0,-0.2091522216796875
1708451175.9604158,56858.41,-571.6800000000003,2831.779999999999,10527863.0,-0.20853424072265625
1708451176.094162,56858.41,-575.6500000000015,2831.779999999999,10525063.0,-0.2078380584716797
1708451176.2279084,56858.41,-575.6500000000015,2831.779999999999,10522673.0,-0.20714950561523438
1708451176.3616548,56858.41,-575.6500000000015,2831.779999999999,10520532.0,-0.20667266845703125
1708451176.495401,56858.41,-575.6500000000015,2831.779999999999,10517895.0,-0.20600509643554688
1708451176.6291473,56858.41,-575.6500000000015,2835.730000000003,10514935.0,-0.2052288055419922
1708451176.7628934,56858.41,-575.6500000000015,2835.730000000003,10513186.0,-0.20477294921875
1708451176.8966398,56858.41,-575.6500000000015,2835.730000000003,10510655.0,-0.2041473388671875
1708451177.0303862,56858.41,-575.6500000000015,2835.730000000003,10507791.0,-0.20343780517578125
1708451177.1641324,56858.41,-575.6500000000015,2835.730000000003,10505755.0,-0.2028179168701172
1708451177.2978787,56858.41,-575.6500000000015,2835.730000000003,10503759.0,-0.20235252380371094
1708451177.431625,56858.41,-575.6500000000015,2835.730000000003,10501125.0,-0.20168685913085938
1708451177.5653713,56858.41,-575.6500000000015,2835.730000000003,10498325.0,-0.2009429931640625
1708451177.6991177,56858.41,-575.6500000000015,2835.730000000003,10496614.0,-0.2004985809326172
1708451177.8328638,56858.41,-575.6500000000015,2835.730000000003,10494057.0,-0.19987106323242188
1708451177.9666102,56858.41,-575.6500000000015,2835.730000000003,10491159.0,-0.19917678833007812
1708451178.1003563,56858.41,-575.6500000000015,2835.730000000003,10489050.0,-0.19854354858398438
1708451178.2341027,56858.41,-575.6500000000015,2835.730000000003,10486896.0,-0.1980609893798828
1708451178.367849,56858.41,-575.6500000000015,2835.730000000003,10484371.0,-0.19740676879882812
1708451178.5015953,56858.41,-575.6500000000015,2835.730000000003,10481597.0,-0.19666671752929688
1708451178.6353416,56858.41,-575.6500000000015,2835.730000000003,10479912.0,-0.1962413787841797
1708451178.7690878,56858.41,-575.6500000000015,2835.730000000003,10477456.0,-0.1956195831298828
1708451178.9028342,56858.41,-575.6500000000015,2835.730000000003,10474580.0,-0.19492340087890625
1708451179.0365806,56862.380000000005,-575.6500000000015,2835.730000000003,10472691.0,-0.19433975219726562
1708451179.1703267,56862.380000000005,-575.6500000000015,2835.730000000003,10470571.0,-0.19385528564453125
1708451179.304073,56862.380000000005,-575.6500000000015,2835.730000000003,10467922.0,-0.1931934356689453
1708451179.4378192,56862.380000000005,-575.6500000000015,2835.730000000003,10465458.0,-0.1924915313720703
1708451179.5715656,56862.380000000005,-575.6500000000015,2835.730000000003,10463740.0,-0.19207763671875
1708451179.705312,56862.380000000005,-575.6500000000015,2835.730000000003,10461398.0,-0.19147300720214844
1708451179.8390582,56862.380000000005,-575.6500000000015,2835.730000000003,10458601.0,-0.19079208374023438
1708451179.9728045,56862.380000000005,-575.6500000000015,2835.730000000003,10456934.0,-0.19025039672851562
1708451180.1065507,56862.380000000005,-575.6500000000015,2835.730000000003,10454666.0,-0.18974876403808594
1708451180.240297,56862.380000000005,-575.6500000000015,2835.730000000003,10452113.0,-0.18911170959472656
1708451180.3740435,56862.380000000005,-575.6500000000015,2835.730000000003,10449643.0,-0.18842315673828125
1708451180.5077896,56862.380000000005,-575.6500000000015,2835.730000000003,10447962.0,-0.18801498413085938
1708451180.641536,56862.380000000005,-575.6500000000015,2835.730000000003,10445474.0,-0.18739700317382812
1708451180.7752821,56862.380000000005,-575.6500000000015,2835.730000000003,10442866.0,-0.1867351531982422
1708451180.9090285,56862.380000000005,-575.6500000000015,2835.730000000003,10441044.0,-0.18619728088378906
1708451181.042775,56862.380000000005,-575.6500000000015,2835.730000000003,10438859.0,-0.18569564819335938
1708451181.176521,56862.380000000005,-579.619999999999,2835.730000000003,10436324.0,-0.18506622314453125
1708451181.3102674,56862.380000000005,-579.619999999999,2835.730000000003,10433977.0,-0.18439865112304688
1708451181.4440136,56862.380000000005,-579.619999999999,2835.730000000003,10432349.0,-0.1840038299560547
1708451181.57776,56862.380000000005,-579.619999999999,2835.730000000003,10429912.0,-0.1833934783935547
1708451181.7115064,56862.380000000005,-579.619999999999,2835.730000000003,10427162.0,-0.1827068328857422
1708451181.8452525,56862.380000000005,-579.619999999999,2831.779999999999,10425684.0,-0.18224334716796875
1708451181.978999,56862.380000000005,-579.619999999999,2831.779999999999,10423470.0,-0.18172645568847656
1708451182.112745,56862.380000000005,-579.619999999999,2831.779999999999,10420769.0,-0.1810779571533203
1708451182.2464914,56862.380000000005,-579.619999999999,2831.779999999999,10418625.0,-0.18044471740722656
1708451182.3802378,56862.380000000005,-579.619999999999,2831.779999999999,10416931.0,-0.1800518035888672
1708451182.513984,56862.380000000005,-579.619999999999,2827.8199999999997,10414597.0,-0.1794586181640625
1708451182.6477304,56862.380000000005,-579.619999999999,2823.8700000000026,10412022.0,-0.17879104614257812
1708451182.7814765,56862.380000000005,-579.619999999999,2823.8700000000026,10410553.0,-0.17834854125976562
1708451182.915223,56862.380000000005,-579.619999999999,2823.8700000000026,10408258.0,-0.17782020568847656
1708451183.0489693,56862.380000000005,-579.619999999999,2823.8700000000026,10405625.0,-0.17718124389648438
1708451183.1827154,56862.380000000005,-579.619999999999,2823.8700000000026,10403705.0,-0.17658233642578125
1708451183.3164618,56862.380000000005,-579.619999999999,2823.8700000000026,10401859.0,-0.17618179321289062
1708451183.4502082,56862.380000000005,-579.619999999999,2823.8700000000026,10399439.0,-0.1755847930908203
1708451183.5839543,56862.380000000005,-579.619999999999,2819.9100000000035,10396956.0,-0.17492103576660156
1708451183.7177007,56858.41,-583.5900000000001,2819.9100000000035,10395598.0,-0.17451095581054688
1708451183.8514469,56858.41,-583.5900000000001,2819.9100000000035,10393295.0,-0.17397689819335938
1708451183.9851933,56858.41,-583.5900000000001,2819.9100000000035,10390715.0,-0.17334556579589844
1708451184.1189396,56854.42,-583.5900000000001,2815.959999999999,10388997.0,-0.17280197143554688
1708451184.2526858,56854.42,-583.5900000000001,2815.959999999999,10387241.0,-0.17240142822265625
1708451184.3864322,56854.42,-587.5600000000013,2815.959999999999,10384801.0,-0.1718006134033203
1708451184.5201783,56854.42,-587.5600000000013,2815.959999999999,10382292.0,-0.17113304138183594
1708451184.6539247,56854.42,-587.5600000000013,2815.959999999999,10380970.0,-0.1707630157470703
1708451184.787671,56854.42,-587.5600000000013,2812.0,10378633.0,-0.1702117919921875
1708451184.9214172,56854.42,-587.5600000000013,2812.0,10376089.0,-0.16957664489746094
1708451185.0551636,56854.42,-587.5600000000013,2812.0,10374571.0,-0.1690959930419922
1708451185.1889098,56854.42,-591.5299999999988,2808.050000000003,10372625.0,-0.1686573028564453
