,x,y,z,temp,temp_error
1717700114.6171386,7566.449999999997,-13287.689999999999,12861.330000000002,8619726.0,0.0
1717700114.7524927,8057.059999999998,-13767.39,13548.599999999999,8620062.0,-0.058868408203125
1717700114.887847,8554.580000000002,-14224.95,14239.589999999997,8620213.0,-0.05890464782714844
1717700115.023201,9059.010000000002,-14656.68,14930.580000000002,8619924.0,-0.05882453918457031
1717700115.158555,9566.89,-15066.27,15625.29,8619502.0,-0.05869293212890625
1717700115.293909,10081.690000000002,-15453.720000000001,16323.71,8618709.0,-0.05848121643066406
1717700115.4292634,10599.940000000002,-15815.34,17022.129999999997,8617726.0,-0.058238983154296875
1717700115.5646174,11121.64,-16154.82,17724.260000000002,8616761.0,-0.057941436767578125
1717700115.6999714,11646.800000000003,-16468.47,18430.120000000003,8615524.0,-0.0576171875
1717700115.8353257,12171.96,-16756.29,19139.68,8614298.0,-0.05730438232421875
1717700115.9706798,12700.580000000002,-17018.28,19852.96,8613234.0,-0.05702400207519531
1717700116.1060338,13229.190000000002,-17254.440000000002,20569.96,8612158.0,-0.05672454833984375
1717700116.2413878,13757.809999999998,-17468.46,21290.660000000003,8611066.0,-0.056427001953125
1717700116.3767421,14286.419999999998,-17652.96,22018.800000000003,8610125.0,-0.05617332458496094
1717700116.5120962,14815.04,-17811.629999999997,22750.660000000003,8609347.0,-0.055965423583984375
1717700116.6474502,15340.199999999997,-17944.47,23489.940000000002,8608889.0,-0.05584716796875
1717700116.7828045,15865.36,-18051.48,24232.940000000002,8608778.0,-0.055774688720703125
1717700116.9181585,16387.07,-18132.66,24983.370000000003,8608766.0,-0.05576324462890625
1717700117.0535126,16905.32,-18188.010000000002,25741.230000000003,8609176.0,-0.055835723876953125
1717700117.1888666,17420.11,-18213.84,26506.519999999997,8609964.0,-0.056003570556640625
1717700117.324221,17928.0,-18213.84,27279.25,8611188.0,-0.056285858154296875
1717700117.459575,18432.42,-18188.010000000002,28059.4,8612710.0,-0.056652069091796875
1717700117.594929,18929.940000000002,-18132.66,28850.690000000002,8614686.0,-0.05713462829589844
1717700117.7302833,19424.010000000002,-18051.48,29649.42,8617294.0,-0.057758331298828125
1717700117.8656373,19911.160000000003,-17940.78,30459.28,8620265.0,-0.0584869384765625
1717700118.0009913,20391.410000000003,-17804.25,31276.58,8623737.0,-0.05934906005859375
1717700118.1363454,20864.739999999998,-17638.2,32105.03,8627779.0,-0.06033897399902344
1717700118.2716997,21327.72,-17446.32,32944.630000000005,8632372.0,-0.06146049499511719
1717700118.4070537,21783.78,-17224.92,33795.36,8637393.0,-0.06269645690917969
1717700118.5424078,22229.47,-16974.0,34657.240000000005,8643192.0,-0.06411552429199219
1717700118.677762,22668.260000000002,-16697.25,35533.979999999996,8649569.0,-0.0657196044921875
1717700118.813116,23096.68,-16390.98,36421.86,8656638.0,-0.06747245788574219
1717700118.94847,23514.730000000003,-16055.189999999999,37324.61,8664352.0,-0.06937980651855469
1717700119.0838242,23922.42,-15689.880000000001,38242.21000000001,8672657.0,-0.07143211364746094
1717700119.2191784,24316.29,-15295.05,39174.67999999999,8681688.0,-0.07368087768554688
1717700119.3545325,24699.800000000003,-14870.7,40122.0,8691733.0,-0.07617378234863281
1717700119.4898865,25069.480000000003,-14413.14,41084.19,8702290.0,-0.0787811279296875
1717700119.6252408,25425.339999999997,-13926.060000000001,42064.95,8713631.0,-0.08159637451171875
1717700119.7605948,25767.39,-13409.46,43060.57000000001,8725770.0,-0.08461189270019531
1717700119.895949,26092.160000000003,-12859.650000000001,44074.770000000004,8738559.0,-0.08778190612792969
1717700120.031303,26399.660000000003,-12280.32,45103.82000000001,8752404.0,-0.09121322631835938
1717700120.1666572,26689.870000000003,-11671.470000000001,46151.45,8767517.0,-0.09493637084960938
1717700120.3020113,26959.370000000003,-11033.099999999999,47217.649999999994,8783277.0,-0.09884452819824219
1717700120.4373653,27204.67,-10368.900000000001,48298.72,8800554.0,-0.10314178466796875
1717700120.5727196,27429.25,-9678.869999999999,49398.36,8818723.0,-0.10759925842285156
1717700120.7080736,27626.18,-8963.009999999998,50509.14,8838209.0,-0.11240768432617188
1717700120.8434277,27798.93,-8228.7,51634.78,8858725.0,-0.11749076843261719
1717700120.9787817,27944.04,-7475.939999999999,52767.86,8880735.0,-0.12288856506347656
1717700121.114136,28058.050000000003,-6712.110000000001,53908.369999999995,8904204.0,-0.12865447998046875
1717700121.24949,28144.43,-5940.9000000000015,55052.59,8929322.0,-0.13483810424804688
1717700121.384844,28199.71,-5166.0,56193.100000000006,8955807.0,-0.14131927490234375
1717700121.5201983,28223.9,-4398.48,57326.17,8983449.0,-0.14808082580566406
1717700121.6555524,28220.440000000002,-3638.34,58444.39,9011803.0,-0.15498733520507812
1717700121.7909064,28185.89,-2896.6500000000015,59544.03,9040602.0,-0.16197586059570312
1717700121.9262605,28127.160000000003,-2180.790000000001,60613.94,9069388.0,-0.16893386840820312
1717700122.0616148,28047.690000000002,-1494.4500000000007,61646.72,9097447.0,-0.17565536499023438
1717700122.1969688,27950.949999999997,-848.7000000000007,62638.619999999995,9124014.0,-0.1819629669189453
1717700122.3323228,27840.39,-243.54000000000087,63578.520000000004,9148730.0,-0.18775367736816406
1717700122.467677,27719.46,321.02999999999884,64466.399999999994,9170686.0,-0.19280052185058594
1717700122.6030312,27595.08,837.6299999999974,65294.850000000006,9189452.0,-0.19701385498046875
1717700122.7383852,27474.160000000003,1309.949999999997,66060.14,9205056.0,-0.20033645629882812
1717700122.8737392,27356.690000000002,1737.989999999998,66762.27,9217069.0,-0.2027263641357422
1717700123.0090935,27246.129999999997,2118.0599999999977,67401.25,9225254.0,-0.20409202575683594
1717700123.1444476,27145.940000000002,2457.540000000001,67980.79,9230245.0,-0.2045879364013672
1717700123.2798016,27056.1,2763.8099999999977,68500.89,9231971.0,-0.20423507690429688
1717700123.415156,26980.1,3036.8700000000026,68965.27,9230795.0,-0.2031116485595703
1717700123.55051,26917.910000000003,3280.4100000000035,69377.63,9227393.0,-0.2013416290283203
1717700123.685864,26866.08,3490.739999999998,69741.71,9221518.0,-0.19894790649414062
1717700123.821218,26828.08,3675.239999999998,70061.19,9213762.0,-0.1960430145263672
1717700123.9565723,26796.980000000003,3841.290000000001,70343.53,9204235.0,-0.1926593780517578
1717700124.0919263,26776.25,3985.199999999997,70588.72,9193602.0,-0.18895339965820312
1717700124.2272804,26758.980000000003,4114.3499999999985,70804.19,9181658.0,-0.184906005859375
1717700124.3626347,26752.059999999998,4225.050000000003,70989.94,9169033.0,-0.18067359924316406
1717700124.4979887,26745.160000000003,4324.68,71149.68,9155685.0,-0.1762371063232422
1717700124.6333427,26745.160000000003,4405.860000000001,71287.14,9141927.0,-0.1716747283935547
1717700124.7686968,26748.61,4475.970000000001,71406.02,9127538.0,-0.16695213317871094
1717700124.904051,26755.519999999997,4538.699999999997,71506.32,9112897.0,-0.16216468811035156
1717700125.039405,26762.43,4590.360000000001,71591.78,9098025.0,-0.15731048583984375
1717700125.1747591,26772.800000000003,4638.330000000002,71666.07,9082940.0,-0.15239715576171875
1717700125.3101134,26783.160000000003,4678.919999999998,71729.22,9067787.0,-0.1474761962890625
1717700125.4454675,26793.519999999997,4712.129999999997,71781.24,9052524.0,-0.14253807067871094
1717700125.5808215,26803.89,4737.959999999999,71825.82,9037189.0,-0.13758277893066406
1717700125.7161756,26810.800000000003,4760.0999999999985,71862.96,9021791.0,-0.13261795043945312
1717700125.8515298,26821.160000000003,4778.550000000003,71896.4,9006514.0,-0.12770843505859375
1717700125.9868839,26828.08,4793.309999999998,71922.41,8991261.0,-0.12281608581542969
1717700126.122238,26838.440000000002,4804.379999999997,71944.7,8976312.0,-0.11801528930664062
1717700126.2575922,26848.800000000003,4815.449999999997,71963.27,8961504.0,-0.11326408386230469
1717700126.3929462,26855.72,4822.830000000002,71981.85,8946666.0,-0.10853958129882812
1717700126.5283003,26862.620000000003,4826.519999999997,71996.71,8931961.0,-0.10386848449707031
1717700126.6636543,26869.54,4826.519999999997,72007.85,8917369.0,-0.09924507141113281
1717700126.7990086,26876.440000000002,4830.209999999999,72019.0,8902987.0,-0.09470176696777344
1717700126.9343626,26879.9,4833.9000000000015,72030.14,8888693.0,-0.09021568298339844
1717700127.0697167,26886.809999999998,4833.9000000000015,72037.57,8874690.0,-0.08582687377929688
1717700127.205071,26890.260000000002,4830.209999999999,72045.0,8860819.0,-0.0814971923828125
1717700127.340425,26890.260000000002,4830.209999999999,72048.72,8847145.0,-0.07724571228027344
1717700127.475779,26893.72,4826.519999999997,72056.15,8833559.0,-0.07305717468261719
1717700127.611133,26893.72,4826.519999999997,72059.86,8820393.0,-0.06900787353515625
1717700127.7464874,26893.72,4830.209999999999,72063.57,8807331.0,-0.06500625610351562
1717700127.8818414,26897.18,4830.209999999999,72067.29,8794460.0,-0.06108856201171875
1717700128.0171955,26897.18,4830.209999999999,72071.0,8781894.0,-0.057292938232421875
1717700128.1525495,26897.18,4830.209999999999,72074.72,8769807.0,-0.05364418029785156
1717700128.2879038,26897.18,4830.209999999999,72074.72,8757964.0,-0.05008506774902344
1717700128.4232578,26893.72,4830.209999999999,72078.44,8746423.0,-0.04663276672363281
1717700128.5586119,26890.260000000002,4830.209999999999,72082.15,8735239.0,-0.04331779479980469
1717700128.6939662,26886.809999999998,4830.209999999999,72085.86,8724560.0,-0.040157318115234375
1717700128.8293202,26886.809999999998,4830.209999999999,72089.58,8714287.0,-0.03711891174316406
1717700128.9646742,26883.36,4830.209999999999,72093.29,8704679.0,-0.03428459167480469
1717700129.1000283,26883.36,4830.209999999999,72093.29,8695544.0,-0.03160858154296875
1717700129.2353826,26879.9,4830.209999999999,72097.01,8686907.0,-0.029071807861328125
1717700129.3707366,26879.9,4833.9000000000015,72097.01,8679004.0,-0.026750564575195312
1717700129.5060906,26876.440000000002,4833.9000000000015,72100.73,8671635.0,-0.024587631225585938
1717700129.641445,26872.989999999998,4837.5899999999965,72104.44,8665263.0,-0.022703170776367188
1717700129.776799,26869.54,4841.279999999999,72108.16,8659954.0,-0.021108627319335938
1717700129.912153,26866.08,4844.970000000001,72108.16,8655432.0,-0.019720077514648438
1717700130.047507,26862.620000000003,4848.6600000000035,72111.87,8651710.0,-0.018550872802734375
1717700130.1828613,26859.17,4852.3499999999985,72111.87,8648786.0,-0.017606735229492188
1717700130.3182154,26855.72,4856.040000000001,72111.87,8646857.0,-0.016908645629882812
1717700130.4535694,26852.260000000002,4863.419999999998,72111.87,8645786.0,-0.016443252563476562
1717700130.5889237,26848.800000000003,4870.800000000003,72111.87,8645560.0,-0.01619720458984375
1717700130.7242777,26841.9,4874.489999999998,72111.87,8646171.0,-0.016172409057617188
1717700130.8596318,26838.440000000002,4878.18,72111.87,8647430.0,-0.016302108764648438
1717700130.9949858,26834.980000000003,4885.559999999998,72111.87,8649381.0,-0.0166015625
1717700131.13034,26831.53,4892.940000000002,72111.87,8652030.0,-0.017078399658203125
1717700131.2656941,26828.08,4900.32,72111.87,8655242.0,-0.017696380615234375
1717700131.4010482,26824.620000000003,4907.699999999997,72108.16,8658850.0,-0.01839447021484375
1717700131.5364025,26817.71,4911.389999999999,72108.16,8662779.0,-0.019170761108398438
1717700131.6717565,26814.260000000002,4915.080000000002,72104.44,8667054.0,-0.020025253295898438
1717700131.8071105,26807.339999999997,4918.769999999997,72104.44,8671588.0,-0.020944595336914062
1717700131.9424646,26803.89,4929.8399999999965,72100.73,8676259.0,-0.021881103515625
1717700132.0778189,26800.440000000002,4937.220000000001,72097.01,8680958.0,-0.02280426025390625
1717700132.213173,26793.519999999997,4944.5999999999985,72093.29,8685619.0,-0.023712158203125
1717700132.348527,26790.07,4948.290000000001,72089.58,8690227.0,-0.02458953857421875
1717700132.4838812,26783.160000000003,4948.290000000001,72089.58,8694657.0,-0.02542877197265625
1717700132.6192353,26776.25,4955.669999999998,72085.86,8698919.0,-0.026201248168945312
1717700132.7545893,26772.800000000003,4959.360000000001,72082.15,8702783.0,-0.02686309814453125
1717700132.8899434,26769.339999999997,4966.739999999998,72078.44,8706392.0,-0.0274658203125
1717700133.0252976,26765.879999999997,4970.43,72074.72,8709692.0,-0.027967453002929688
1717700133.1606517,26762.43,4970.43,72071.0,8712733.0,-0.0283966064453125
1717700133.2960057,26758.980000000003,4970.43,72067.29,8715269.0,-0.028690338134765625
1717700133.43136,26758.980000000003,4970.43,72059.86,8717359.0,-0.028867721557617188
1717700133.566714,26755.519999999997,4970.43,72056.15,8718951.0,-0.028921127319335938
1717700133.702068,26755.519999999997,4970.43,72052.43,8720257.0,-0.028886795043945312
1717700133.8374221,26755.519999999997,4974.120000000003,72048.72,8720940.0,-0.02869415283203125
1717700133.9727764,26755.519999999997,4977.809999999998,72045.0,8721206.0,-0.028413772583007812
1717700134.1081305,26755.519999999997,4977.809999999998,72041.28,8721103.0,-0.028041839599609375
1717700134.2434845,26755.519999999997,4977.809999999998,72037.57,8720670.0,-0.027578353881835938
1717700134.3788388,26755.519999999997,4977.809999999998,72033.85,8719837.0,-0.027017593383789062
1717700134.5141928,26755.519999999997,4977.809999999998,72030.14,8718515.0,-0.026338577270507812
1717700134.6495469,26755.519999999997,4981.5,72026.42,8717046.0,-0.025644302368164062
1717700134.784901,26758.980000000003,4981.5,72022.71,8715130.0,-0.024831771850585938
1717700134.9202552,26762.43,4981.5,72019.0,8712959.0,-0.023958206176757812
1717700135.0556092,26765.879999999997,4977.809999999998,72015.28,8710712.0,-0.023082733154296875
1717700135.1909633,26769.339999999997,4974.120000000003,72015.28,8708174.0,-0.022153854370117188
1717700135.3263175,26769.339999999997,4974.120000000003,72015.28,8705487.0,-0.021188735961914062
1717700135.4616716,26772.800000000003,4974.120000000003,72015.28,8702544.0,-0.020162582397460938
1717700135.5970256,26772.800000000003,4974.120000000003,72011.57,8699652.0,-0.019166946411132812
1717700135.7323797,26772.800000000003,4970.43,72011.57,8696558.0,-0.018138885498046875
1717700135.867734,26772.800000000003,4966.739999999998,72007.85,8693372.0,-0.01709747314453125
1717700136.003088,26772.800000000003,4959.360000000001,72007.85,8690178.0,-0.016057968139648438
1717700136.138442,26772.800000000003,4959.360000000001,72007.85,8687012.0,-0.015041351318359375
1717700136.2737963,26776.25,4955.669999999998,72011.57,8683831.0,-0.01404571533203125
1717700136.4091504,26779.699999999997,4951.980000000003,72015.28,8680822.0,-0.013097763061523438
1717700136.5445044,26783.160000000003,4951.980000000003,72015.28,8678011.0,-0.01220703125
1717700136.6798584,26786.620000000003,4948.290000000001,72015.28,8675423.0,-0.011383056640625
1717700136.8152127,26790.07,4944.5999999999985,72015.28,8672887.0,-0.01059722900390625
1717700136.9505668,26793.519999999997,4940.9100000000035,72015.28,8670575.0,-0.009870529174804688
1717700137.0859208,26796.980000000003,4937.220000000001,72019.0,8668520.0,-0.009210586547851562
1717700137.221275,26803.89,4929.8399999999965,72022.71,8666574.0,-0.008584976196289062
1717700137.3566291,26810.800000000003,4922.459999999999,72026.42,8665092.0,-0.008100509643554688
1717700137.4919832,26814.260000000002,4915.080000000002,72030.14,8663797.0,-0.007663726806640625
1717700137.6273372,26821.160000000003,4907.699999999997,72033.85,8662928.0,-0.007328033447265625
1717700137.7626915,26824.620000000003,4904.010000000002,72037.57,8662241.0,-0.0070476531982421875
1717700137.8980455,26831.53,4900.32,72041.28,8661736.0,-0.0068340301513671875
1717700138.0333996,26834.980000000003,4896.629999999997,72045.0,8661454.0,-0.0066661834716796875
1717700138.1687539,26841.9,4892.940000000002,72048.72,8661539.0,-0.006587982177734375
1717700138.304108,26845.35,4885.559999999998,72056.15,8661791.0,-0.006561279296875
1717700138.439462,26852.260000000002,4881.870000000003,72059.86,8662244.0,-0.0065822601318359375
1717700138.574816,26859.17,4874.489999999998,72067.29,8662796.0,-0.0066280364990234375
1717700138.7101703,26866.08,4870.800000000003,72071.0,8663598.0,-0.0067272186279296875
1717700138.8455243,26869.54,4867.110000000001,72074.72,8664443.0,-0.0068492889404296875
1717700138.9808784,26876.440000000002,4867.110000000001,72078.44,8665445.0,-0.007015228271484375
1717700139.1162326,26883.36,4863.419999999998,72082.15,8666447.0,-0.0071735382080078125
1717700139.2515867,26886.809999999998,4859.730000000003,72085.86,8667574.0,-0.0073490142822265625
1717700139.3869407,26890.260000000002,4856.040000000001,72089.58,8668746.0,-0.007537841796875
1717700139.5222948,26893.72,4848.6600000000035,72093.29,8669971.0,-0.007740020751953125
1717700139.657649,26897.18,4844.970000000001,72097.01,8671002.0,-0.0078887939453125
1717700139.793003,26904.08,4841.279999999999,72100.73,8672094.0,-0.008047103881835938
1717700139.9283571,26907.54,4837.5899999999965,72104.44,8672925.0,-0.00815582275390625
1717700140.0637114,26914.449999999997,4833.9000000000015,72108.16,8673633.0,-0.008226394653320312
1717700140.1990654,26921.36,4826.519999999997,72115.59,8674225.0,-0.008260726928710938
1717700140.3344195,26928.269999999997,4819.139999999999,72119.3,8674784.0,-0.008287429809570312
1717700140.4697735,26935.18,4815.449999999997,72123.01,8675229.0,-0.008296966552734375
1717700140.6051278,26938.64,4811.760000000002,72126.74,8675471.0,-0.008245468139648438
1717700140.7404819,26945.550000000003,4811.760000000002,72130.45,8675644.0,-0.008172988891601562
1717700140.875836,26949.0,4804.379999999997,72134.16,8675536.0,-0.008028030395507812
1717700141.0111902,26952.46,4800.690000000002,72137.88,8675308.0,-0.007862091064453125
1717700141.1465442,26959.370000000003,4797.0,72141.59,8674934.0,-0.007659912109375
1717700141.2818983,26962.82,4793.309999999998,72149.02,8674424.0,-0.0074138641357421875
1717700141.4172523,26966.28,4793.309999999998,72149.02,8673788.0,-0.00713348388671875
1717700141.5526066,26969.730000000003,4793.309999999998,72152.74,8672910.0,-0.0068264007568359375
1717700141.6879606,26973.190000000002,4793.309999999998,72156.46,8671763.0,-0.006435394287109375
1717700141.8233147,26980.1,4789.620000000003,72160.17,8670628.0,-0.00604248046875
1717700141.958669,26980.1,4789.620000000003,72163.88,8669297.0,-0.0056209564208984375
1717700142.094023,26983.550000000003,4789.620000000003,72163.88,8667928.0,-0.005199432373046875
1717700142.229377,26987.010000000002,4785.93,72167.6,8666406.0,-0.0047321319580078125
1717700142.364731,26987.010000000002,4789.620000000003,72167.6,8664941.0,-0.0042858123779296875
1717700142.5000854,26987.010000000002,4789.620000000003,72171.31,8663346.0,-0.0038166046142578125
1717700142.6354394,26987.010000000002,4785.93,72171.31,8661751.0,-0.003360748291015625
1717700142.7707934,26987.010000000002,4785.93,72171.31,8660195.0,-0.0029125213623046875
1717700142.9061477,26987.010000000002,4785.93,72171.31,8658648.0,-0.0024662017822265625
1717700143.0415018,26987.010000000002,4782.239999999998,72175.03,8657029.0,-0.0020236968994140625
1717700143.1768558,26987.010000000002,4785.93,72175.03,8655502.0,-0.0016078948974609375
1717700143.3122098,26983.550000000003,4785.93,72178.75,8653993.0,-0.0011882781982421875
1717700143.4475641,26983.550000000003,4785.93,72178.75,8652523.0,-0.00079345703125
1717700143.5829182,26980.1,4785.93,72178.75,8651143.0,-0.0004291534423828125
1717700143.7182722,26980.1,4785.93,72178.75,8649791.0,-7.43865966796875e-05
1717700143.8536265,26980.1,4785.93,72182.46,8648567.0,0.000247955322265625
1717700143.9889805,26980.1,4789.620000000003,72182.46,8647407.0,0.0005435943603515625
1717700144.1243346,26980.1,4793.309999999998,72182.46,8646411.0,0.00079345703125
1717700144.2596886,26980.1,4797.0,72178.75,8645433.0,0.0010356903076171875
