,x,y,z,temp,temp_error
1717700194.9671392,-17758.7,11852.279999999999,445.8000000000029,8350925.0,0.0
1717700195.1039205,-18207.85,12177.0,315.7699999999968,8359839.0,0.00882720947265625
1717700195.2407017,-18622.45,12486.96,174.59999999999854,8369415.0,0.0063838958740234375
1717700195.377483,-19005.96,12782.160000000003,26.0,8379556.0,0.003810882568359375
1717700195.514264,-19361.82,13062.599999999999,-133.7400000000016,8390307.0,0.001079559326171875
1717700195.6510456,-19690.05,13331.970000000001,-300.90999999999985,8401466.0,-0.0017642974853515625
1717700195.7878268,-19994.08,13590.269999999997,-475.52000000000044,8413036.0,-0.00469207763671875
1717700195.924608,-20273.940000000002,13841.190000000002,-661.2700000000004,8424849.0,-0.0076923370361328125
1717700196.0613892,-20533.059999999998,14081.04,-854.4500000000007,8437131.0,-0.010793685913085938
1717700196.1981704,-20774.92,14309.82,-1055.0600000000013,8449437.0,-0.013916015625
1717700196.3349516,-20999.489999999998,14531.220000000001,-1263.0999999999985,8461835.0,-0.01705169677734375
1717700196.4717329,-21206.79,14745.239999999998,-1474.8499999999985,8474360.0,-0.020208358764648438
1717700196.608514,-21396.82,14951.879999999997,-1694.0400000000009,8486814.0,-0.023349761962890625
1717700196.7452955,-21573.02,15151.14,-1920.6500000000015,8499298.0,-0.026494979858398438
1717700196.8820767,-21735.4,15343.019999999997,-2150.9799999999996,8511609.0,-0.0295867919921875
1717700197.018858,-21887.43,15527.519999999997,-2388.75,8523697.0,-0.03262901306152344
1717700197.1556392,-22029.08,15704.64,-2633.9300000000003,8535685.0,-0.03564453125
1717700197.2924204,-22160.370000000003,15874.379999999997,-2882.84,8547492.0,-0.03858375549316406
1717700197.4292016,-22281.3,16036.739999999998,-3139.1699999999983,8558826.0,-0.04143714904785156
1717700197.5659828,-22391.86,16191.720000000001,-3399.220000000001,8569956.0,-0.044216156005859375
1717700197.702764,-22495.510000000002,16339.32,-3662.9900000000016,8580145.0,-0.04677391052246094
1717700197.8395452,-22592.239999999998,16475.85,-3934.1800000000003,8590485.0,-0.04931449890136719
1717700197.9763267,-22682.08,16605.0,-4209.09,8600040.0,-0.05167961120605469
1717700198.113108,-22765.0,16726.769999999997,-4487.720000000001,8608904.0,-0.05387115478515625
1717700198.2498891,-22841.010000000002,16841.160000000003,-4770.060000000001,8617398.0,-0.0559539794921875
1717700198.3866704,-22913.559999999998,16948.17,-5059.830000000002,8625234.0,-0.057865142822265625
1717700198.5234516,-22982.66,17044.11,-5353.32,8632425.0,-0.05961036682128906
1717700198.6602328,-23044.85,17132.67,-5650.509999999998,8638785.0,-0.0611419677734375
1717700198.797014,-23103.59,17210.160000000003,-5951.43,8644410.0,-0.0624847412109375
1717700198.9337952,-23158.870000000003,17276.58,-6256.060000000001,8649391.0,-0.06365585327148438
1717700199.0705764,-23210.690000000002,17335.620000000003,-6568.119999999999,8653734.0,-0.06465530395507812
1717700199.207358,-23259.059999999998,17383.589999999997,-6883.889999999999,8657242.0,-0.06541824340820312
1717700199.344139,-23303.98,17424.18,-7203.380000000001,8659757.0,-0.0659637451171875
1717700199.4809203,-23345.440000000002,17453.699999999997,-7526.59,8661706.0,-0.06637382507324219
1717700199.6177015,-23386.9,17475.839999999997,-7857.23,8662956.0,-0.06658172607421875
1717700199.7544827,-23424.9,17486.910000000003,-8191.57,8663627.0,-0.06663322448730469
1717700199.891264,-23462.9,17490.6,-8529.64,8663502.0,-0.06647682189941406
1717700200.0280452,-23497.46,17483.22,-8871.419999999998,8662737.0,-0.06616783142089844
1717700200.1648264,-23532.010000000002,17468.46,-9220.630000000001,8661253.0,-0.06566619873046875
1717700200.3016078,-23566.559999999998,17446.32,-9573.55,8659368.0,-0.06504631042480469
1717700200.438389,-23601.11,17413.11,-9930.189999999999,8656935.0,-0.06428718566894531
1717700200.5751703,-23632.2,17376.21,-10294.259999999998,8654038.0,-0.06344413757324219
1717700200.7119515,-23663.3,17331.93,-10662.05,8651009.0,-0.06256294250488281
1717700200.8487327,-23694.39,17280.269999999997,-11037.259999999998,8647576.0,-0.061565399169921875
1717700200.985514,-23725.48,17224.92,-11416.189999999999,8643980.0,-0.060527801513671875
1717700201.1222951,-23756.58,17165.879999999997,-11798.84,8640235.0,-0.05944061279296875
1717700201.2590764,-23787.68,17103.15,-12188.919999999998,8636389.0,-0.058330535888671875
1717700201.3958576,-23818.77,17036.730000000003,-12582.71,8632489.0,-0.05721473693847656
1717700201.532639,-23853.32,16966.620000000003,-12983.919999999998,8628652.0,-0.05609703063964844
1717700201.6694202,-23884.42,16892.82,-13388.86,8624962.0,-0.05503273010253906
1717700201.8062015,-23918.96,16819.019999999997,-13801.23,8621334.0,-0.0540008544921875
1717700201.9429827,-23953.52,16741.53,-14221.02,8617984.0,-0.05301475524902344
1717700202.079764,-23988.059999999998,16664.04,-14644.529999999999,8614942.0,-0.052112579345703125
1717700202.216545,-24026.07,16586.550000000003,-15075.470000000001,8612308.0,-0.051319122314453125
1717700202.3533263,-24064.08,16509.059999999998,-15510.119999999999,8609813.0,-0.050548553466796875
1717700202.4901075,-24102.08,16431.57,-15952.21,8607704.0,-0.04989814758300781
1717700202.6268888,-24140.09,16354.080000000002,-16401.73,8606040.0,-0.049320220947265625
1717700202.7636702,-24178.09,16276.589999999997,-16858.67,8604839.0,-0.048877716064453125
1717700202.9004514,-24219.55,16199.099999999999,-17319.33,8603904.0,-0.048526763916015625
1717700203.0372326,-24261.010000000002,16121.61,-17787.42,8603484.0,-0.04828834533691406
1717700203.1740139,-24302.47,16047.809999999998,-18262.940000000002,8603599.0,-0.04816436767578125
1717700203.310795,-24343.93,15974.010000000002,-18745.89,8604099.0,-0.04815101623535156
1717700203.4475763,-24388.85,15900.21,-19236.27,8605021.0,-0.04825019836425781
1717700203.5843575,-24433.760000000002,15826.410000000003,-19734.08,8606385.0,-0.0484619140625
1717700203.7211387,-24478.68,15756.300000000003,-20239.32,8608181.0,-0.04878044128417969
1717700203.8579202,-24527.05,15686.190000000002,-20751.989999999998,8610563.0,-0.04919624328613281
1717700203.9947014,-24575.42,15616.080000000002,-21272.09,8613232.0,-0.04974555969238281
1717700204.1314826,-24623.79,15545.970000000001,-21799.620000000003,8616208.0,-0.05034446716308594
1717700204.2682638,-24672.16,15475.86,-22338.3,8619720.0,-0.051082611083984375
1717700204.405045,-24720.53,15405.75,-22884.4,8623676.0,-0.051921844482421875
1717700204.5418262,-24768.9,15335.64,-23441.65,8628065.0,-0.05285835266113281
1717700204.6786075,-24820.72,15265.529999999999,-24006.33,8632840.0,-0.05388069152832031
1717700204.8153887,-24872.55,15195.419999999998,-24582.16,8637954.0,-0.05499267578125
1717700204.95217,-24924.37,15125.309999999998,-25165.41,8643435.0,-0.0561981201171875
1717700205.0889513,-24976.2,15051.510000000002,-25759.81,8649133.0,-0.0574493408203125
1717700205.2257326,-25031.48,14977.71,-26365.36,8655033.0,-0.05872917175292969
1717700205.3625138,-25086.760000000002,14900.220000000001,-26982.05,8661338.0,-0.06010246276855469
1717700205.499295,-25142.04,14822.730000000003,-27609.88,8667875.0,-0.06152534484863281
1717700205.6360762,-25200.77,14741.550000000003,-28248.86,8674629.0,-0.06300735473632812
1717700205.7728574,-25259.510000000002,14656.68,-28898.989999999998,8681600.0,-0.06453323364257812
1717700205.9096386,-25321.7,14571.809999999998,-29560.260000000002,8688883.0,-0.06612396240234375
1717700206.0464199,-25383.88,14483.25,-30236.38,8696138.0,-0.06772994995117188
1717700206.1832013,-25449.53,14391.0,-30927.38,8703502.0,-0.06930160522460938
1717700206.3199825,-25515.18,14295.059999999998,-31629.51,8710832.0,-0.07083320617675781
1717700206.4567637,-25584.28,14195.43,-32346.51,8718186.0,-0.07239913940429688
1717700206.593545,-25653.38,14092.11,-33078.36,8725613.0,-0.07397651672363281
1717700206.7303262,-25725.93,13981.410000000003,-33825.08,8733149.0,-0.07555007934570312
1717700206.8671074,-25801.94,13867.019999999997,-34586.65,8740877.0,-0.07715797424316406
1717700207.0038886,-25877.95,13748.940000000002,-35363.09,8748752.0,-0.07880020141601562
1717700207.1406698,-25957.42,13627.169999999998,-36154.38,8756762.0,-0.08048439025878906
1717700207.277451,-26040.34,13498.019999999997,-36960.54,8764940.0,-0.08218955993652344
1717700207.4142325,-26123.260000000002,13368.870000000003,-37781.55,8773584.0,-0.08394813537597656
1717700207.5510137,-26213.09,13236.029999999999,-38617.43,8782426.0,-0.08575439453125
1717700207.687795,-26302.92,13095.809999999998,-39468.16,8791460.0,-0.0876312255859375
1717700207.8245761,-26396.2,12955.589999999997,-40333.76,8800956.0,-0.08957481384277344
1717700207.9613574,-26492.94,12811.68,-41214.21,8810987.0,-0.09163475036621094
1717700208.0981386,-26593.14,12664.080000000002,-42109.53,8821587.0,-0.09381294250488281
1717700208.2349198,-26696.79,12512.79,-43015.979999999996,8832723.0,-0.09610557556152344
1717700208.371701,-26800.44,12354.120000000003,-43933.59,8844302.0,-0.09855270385742188
1717700208.5084822,-26911.0,12199.14,-44862.34,8856959.0,-0.10117149353027344
1717700208.6452637,-27021.56,12040.470000000001,-45802.24,8870479.0,-0.10398101806640625
1717700208.782045,-27135.57,11878.11,-46745.85,8885001.0,-0.10701751708984375
1717700208.918826,-27253.04,11712.059999999998,-47696.89,8900288.0,-0.11023330688476562
1717700209.0556073,-27373.96,11542.32,-48647.93,8916834.0,-0.11374473571777344
1717700209.1923885,-27494.89,11368.89,-49598.97,8934053.0,-0.11737442016601562
1717700209.3291698,-27619.27,11191.769999999997,-50546.29,8952084.0,-0.12115287780761719
1717700209.465951,-27743.65,11010.96,-51482.47,8970739.0,-0.12507247924804688
1717700209.6027322,-27871.48,10826.46,-52407.509999999995,8989504.0,-0.12897300720214844
1717700209.7395136,-28002.78,10634.580000000002,-53313.97,9008550.0,-0.13286209106445312
1717700209.8762949,-28134.06,10442.699999999997,-54198.14,9027525.0,-0.13668441772460938
1717700210.013076,-28265.36,10243.440000000002,-55052.59,9046021.0,-0.14033889770507812
1717700210.1498573,-28400.1,10040.489999999998,-55873.6,9063453.0,-0.1436786651611328
1717700210.2866385,-28534.85,9837.54,-56657.47,9079165.0,-0.1465435028076172
1717700210.4234197,-28669.59,9630.900000000001,-57396.75,9093112.0,-0.1488933563232422
1717700210.560201,-28804.34,9427.949999999997,-58091.46,9104942.0,-0.15064430236816406
1717700210.6969821,-28939.08,9225.0,-58741.58,9114306.0,-0.1517505645751953
1717700210.8337634,-29077.28,9025.739999999998,-59339.7,9121302.0,-0.15219497680664062
1717700210.9705448,-29212.03,8830.169999999998,-59885.81,9125691.0,-0.1519298553466797
1717700211.107326,-29346.77,8641.980000000003,-60383.61,9127423.0,-0.15099143981933594
1717700211.2441072,-29478.06,8461.169999999998,-60829.41,9126813.0,-0.14940834045410156
1717700211.3808885,-29605.9,8298.809999999998,-61230.64,9123941.0,-0.14723968505859375
1717700211.5176697,-29730.28,8143.830000000002,-61590.990000000005,9118902.0,-0.1445178985595703
1717700211.654451,-29851.2,7999.919999999998,-61910.479999999996,9112392.0,-0.14141845703125
1717700211.791232,-29965.22,7867.080000000002,-62192.82,9104286.0,-0.1379222869873047
1717700211.9280133,-30072.32,7749.0,-62441.72,9095125.0,-0.13414573669433594
1717700212.0647948,-30175.97,7641.989999999998,-62660.91,9084948.0,-0.1301097869873047
1717700212.201576,-30269.260000000002,7546.050000000003,-62854.09,9074111.0,-0.12595367431640625
1717700212.3383572,-30359.09,7461.18,-63021.259999999995,9062725.0,-0.12166595458984375
1717700212.4751384,-30442.010000000002,7387.379999999997,-63166.15,9050741.0,-0.11724853515625
1717700212.6119196,-30518.02,7320.959999999999,-63296.17,9038738.0,-0.11285018920898438
1717700212.7487009,-30587.12,7265.610000000001,-63407.619999999995,9026403.0,-0.1083984375
1717700212.885482,-30649.3,7221.330000000002,-63504.21,9013932.0,-0.10395240783691406
1717700213.0222633,-30708.04,7180.739999999998,-63589.66,9001374.0,-0.09952163696289062
1717700213.1590445,-30759.87,7147.529999999999,-63663.96,8988997.0,-0.09514808654785156
1717700213.295826,-30804.78,7121.699999999997,-63734.54,8976571.0,-0.09080886840820312
1717700213.4326072,-30846.24,7099.559999999998,-63793.990000000005,8964442.0,-0.08660316467285156
1717700213.5693884,-30884.25,7081.110000000001,-63846.0,8952252.0,-0.08240699768066406
1717700213.7061696,-30918.8,7062.6600000000035,-63894.29,8940158.0,-0.07827377319335938
1717700213.8429508,-30949.89,7051.5899999999965,-63935.16,8928266.0,-0.07423019409179688
1717700213.979732,-30974.08,7040.519999999997,-63972.31,8916668.0,-0.07031822204589844
1717700214.1165133,-30998.26,7033.139999999999,-64005.740000000005,8905038.0,-0.06644248962402344
1717700214.2532945,-31018.99,7025.760000000002,-64039.17,8893865.0,-0.06271171569824219
1717700214.3900757,-31039.72,7022.07,-64065.18,8882669.0,-0.05901145935058594
1717700214.5268571,-31057.0,7018.379999999997,-64091.18,8871727.0,-0.055431365966796875
1717700214.6636384,-31074.27,7018.379999999997,-64113.479999999996,8860883.0,-0.05191993713378906
1717700214.8004196,-31088.09,7014.690000000002,-64135.759999999995,8850252.0,-0.0485076904296875
1717700214.9372008,-31101.91,7014.690000000002,-64154.34,8839753.0,-0.04516792297363281
1717700215.073982,-31112.28,7014.690000000002,-64172.91,8829382.0,-0.04189872741699219
1717700215.2107632,-31122.64,7014.690000000002,-64187.770000000004,8819245.0,-0.0387420654296875
1717700215.3475444,-31129.55,7014.690000000002,-64206.35,8809339.0,-0.035686492919921875
1717700215.4843256,-31139.92,7014.690000000002,-64221.21,8799592.0,-0.03270149230957031
1717700215.621107,-31146.83,7014.690000000002,-64236.07,8789828.0,-0.029748916625976562
1717700215.7578883,-31153.74,7014.690000000002,-64247.21,8780340.0,-0.026910781860351562
1717700215.8946695,-31160.64,7018.379999999997,-64258.36,8770853.0,-0.02411651611328125
1717700216.0314507,-31164.1,7022.07,-64265.79,8761637.0,-0.021432876586914062
1717700216.168232,-31167.56,7025.760000000002,-64276.93,8752523.0,-0.018812179565429688
1717700216.3050132,-31171.01,7029.449999999997,-64284.36,8743574.0,-0.016260147094726562
1717700216.4417944,-31174.46,7033.139999999999,-64291.8,8734742.0,-0.013792037963867188
1717700216.5785756,-31174.46,7033.139999999999,-64299.22,8726446.0,-0.011484146118164062
1717700216.7153568,-31177.92,7033.139999999999,-64306.65,8718437.0,-0.00928497314453125
1717700216.8521383,-31181.38,7033.139999999999,-64310.369999999995,8710713.0,-0.0071849822998046875
1717700216.9889195,-31181.38,7036.830000000002,-64314.08,8703398.0,-0.0052165985107421875
1717700217.1257007,-31181.38,7040.519999999997,-64321.520000000004,8696413.0,-0.0033740997314453125
1717700217.262482,-31181.38,7040.519999999997,-64325.229999999996,8689867.0,-0.0016632080078125
1717700217.3992631,-31181.38,7040.519999999997,-64328.94,8683916.0,-0.000118255615234375
1717700217.5360444,-31181.38,7040.519999999997,-64332.66,8678431.0,0.0012798309326171875
1717700217.6728256,-31181.38,7036.830000000002,-64336.369999999995,8673395.0,0.002536773681640625
1717700217.8096068,-31181.38,7036.830000000002,-64340.09,8669148.0,0.003589630126953125
1717700217.946388,-31184.83,7033.139999999999,-64340.09,8665660.0,0.00441741943359375
1717700218.0831695,-31184.83,7033.139999999999,-64340.09,8662866.0,0.00507354736328125
1717700218.2199507,-31188.29,7033.139999999999,-64340.09,8660553.0,0.005588531494140625
1717700218.356732,-31188.29,7033.139999999999,-64340.09,8659203.0,0.005863189697265625
1717700218.493513,-31188.29,7029.449999999997,-64336.369999999995,8658542.0,0.0059604644775390625
1717700218.6302943,-31191.74,7022.07,-64336.369999999995,8658587.0,0.00588226318359375
1717700218.7670755,-31195.2,7022.07,-64332.66,8659108.0,0.0056915283203125
1717700218.9038568,-31195.2,7018.379999999997,-64328.94,8660308.0,0.005306243896484375
1717700219.040638,-31198.65,7018.379999999997,-64325.229999999996,8661866.0,0.0048370361328125
1717700219.1774194,-31198.65,7014.690000000002,-64321.520000000004,8664146.0,0.0042018890380859375
1717700219.3142006,-31202.11,7011.0,-64317.8,8666686.0,0.0035076141357421875
1717700219.4509819,-31202.11,7007.309999999998,-64314.08,8669843.0,0.0026721954345703125
1717700219.587763,-31205.56,7007.309999999998,-64310.369999999995,8673101.0,0.0018215179443359375
1717700219.7245443,-31205.56,7007.309999999998,-64306.65,8676738.0,0.000888824462890625
1717700219.8613255,-31209.02,7007.309999999998,-64302.94,8680559.0,-8.58306884765625e-05
1717700219.9981067,-31212.47,7007.309999999998,-64299.22,8684455.0,-0.00106048583984375
1717700220.134888,-31215.93,7007.309999999998,-64295.509999999995,8688538.0,-0.0020618438720703125
1717700220.2716691,-31219.38,7003.620000000003,-64291.8,8692593.0,-0.0030517578125
1717700220.4084506,-31222.84,7003.620000000003,-64288.08,8696320.0,-0.003940582275390625
1717700220.5452318,-31226.29,7003.620000000003,-64284.36,8700092.0,-0.0048313140869140625
1717700220.682013,-31229.75,7003.620000000003,-64280.65,8703541.0,-0.0056171417236328125
1717700220.8187943,-31233.2,6999.93,-64276.93,8706750.0,-0.0063304901123046875
1717700220.9555755,-31236.66,6999.93,-64273.22,8709632.0,-0.0069580078125
1717700221.0923567,-31240.11,6999.93,-64269.5,8712179.0,-0.0074977874755859375
1717700221.229138,-31240.11,6996.239999999998,-64265.79,8714346.0,-0.007928848266601562
1717700221.365919,-31243.57,6996.239999999998,-64258.36,8716011.0,-0.008226394653320312
1717700221.5027006,-31247.02,6992.550000000003,-64250.93,8717238.0,-0.008409500122070312
1717700221.6394818,-31250.48,6992.550000000003,-64243.5,8717966.0,-0.008457183837890625
1717700221.776263,-31253.93,6992.550000000003,-64239.78,8718349.0,-0.008419036865234375
1717700221.9130442,-31260.84,6992.550000000003,-64236.07,8718329.0,-0.008272171020507812
1717700222.0498254,-31264.3,6988.860000000001,-64232.36,8717792.0,-0.008012771606445312
1717700222.1866066,-31267.75,6992.550000000003,-64228.64,8716898.0,-0.00766754150390625
1717700222.3233879,-31271.21,6992.550000000003,-64224.92,8715640.0,-0.007228851318359375
1717700222.460169,-31274.66,6996.239999999998,-64221.21,8714057.0,-0.0067138671875
1717700222.5969503,-31278.12,6996.239999999998,-64217.490000000005,8712183.0,-0.00612640380859375
1717700222.7337317,-31285.03,6999.93,-64213.78,8709898.0,-0.0054531097412109375
1717700222.870513,-31288.48,6999.93,-64210.06,8707366.0,-0.0047283172607421875
1717700223.0072942,-31295.39,6996.239999999998,-64206.35,8704509.0,-0.0039348602294921875
1717700223.1440754,-31298.85,6996.239999999998,-64202.64,8701297.0,-0.0030517578125
1717700223.2808566,-31302.3,6992.550000000003,-64195.2,8698001.0,-0.002162933349609375
1717700223.4176378,-31305.76,6988.860000000001,-64191.490000000005,8694307.0,-0.0011920928955078125
1717700223.554419,-31309.21,6988.860000000001,-64187.770000000004,8690488.0,-0.000209808349609375
1717700223.6912003,-31312.67,6988.860000000001,-64184.06,8686565.0,0.0007877349853515625
1717700223.8279815,-31316.12,6988.860000000001,-64176.630000000005,8682631.0,0.0017795562744140625
1717700223.964763,-31319.58,6988.860000000001,-64172.91,8678620.0,0.0027751922607421875
1717700224.1015441,-31323.03,6985.169999999998,-64169.2,8674672.0,0.0037403106689453125
1717700224.2383254,-31326.49,6985.169999999998,-64165.490000000005,8670798.0,0.0046672821044921875
1717700224.3751066,-31326.49,6988.860000000001,-64161.770000000004,8667110.0,0.0055389404296875
1717700224.5118878,-31329.94,6981.480000000003,-64161.770000000004,8663803.0,0.00629425048828125
1717700224.648669,-31336.85,6977.790000000001,-64158.05,8660511.0,0.0070362091064453125
1717700224.7854502,-31340.3,6974.0999999999985,-64150.630000000005,8657331.0,0.00774383544921875
1717700224.9222314,-31343.76,6970.4100000000035,-64146.91,8654501.0,0.008348464965820312
1717700225.059013,-31347.22,6970.4100000000035,-64143.2,8651843.0,0.008897781372070312
1717700225.195794,-31350.67,6966.720000000001,-64139.479999999996,8649754.0,0.009307861328125
1717700225.3325753,-31354.12,6963.029999999999,-64132.05,8647861.0,0.0096588134765625
